empty_capillary-00032.tif: 2-theta Scan
2-Theta Angle (Degrees)

       1465
 2.0003892E-02  0.0000000E+00
 6.0011677E-02  0.0000000E+00
 1.0001946E-01  0.0000000E+00
 1.4002724E-01  0.0000000E+00
 1.8003502E-01  0.0000000E+00
 2.2004281E-01  0.0000000E+00
 2.6005059E-01  0.0000000E+00
 3.0005839E-01  0.0000000E+00
 3.4006616E-01  0.0000000E+00
 3.8007396E-01  0.0000000E+00
 4.2008173E-01  0.0000000E+00
 4.6008953E-01  0.0000000E+00
 5.0009733E-01  0.0000000E+00
 5.4010510E-01  0.0000000E+00
 5.8011287E-01  0.0000000E+00
 6.2012064E-01  0.0000000E+00
 6.6012847E-01  0.0000000E+00
 7.0013624E-01  0.0000000E+00
 7.4014401E-01  1.9233705E+04
 7.8015178E-01  2.0643180E+04
 8.2015961E-01  2.4089652E+04
 8.6016738E-01  2.8558949E+04
 9.0017515E-01  3.1960938E+04
 9.4018292E-01  3.4454125E+04
 9.8019075E-01  3.6778254E+04
 1.0201985E+00  3.8261984E+04
 1.0602063E+00  3.9748215E+04
 1.1002141E+00  4.1012711E+04
 1.1402218E+00  4.2334555E+04
 1.1802297E+00  4.3435773E+04
 1.2202375E+00  4.4202719E+04
 1.2602452E+00  4.5041203E+04
 1.3002530E+00  4.5871211E+04
 1.3402607E+00  4.6438758E+04
 1.3802686E+00  4.7125609E+04
 1.4202764E+00  4.7715723E+04
 1.4602841E+00  4.8320469E+04
 1.5002919E+00  4.8954164E+04
 1.5402998E+00  4.9353953E+04
 1.5803075E+00  4.9740855E+04
 1.6203153E+00  5.0056812E+04
 1.6603230E+00  5.0176203E+04
 1.7003309E+00  5.0306520E+04
 1.7403387E+00  5.0384910E+04
 1.7803464E+00  5.0660898E+04
 1.8203542E+00  5.1047258E+04
 1.8603621E+00  5.1264051E+04
 1.9003698E+00  5.1572414E+04
 1.9403776E+00  5.1953367E+04
 1.9803853E+00  5.2372160E+04
 2.0203931E+00  5.2850316E+04
 2.0604010E+00  5.3230684E+04
 2.1004088E+00  5.3638797E+04
 2.1404164E+00  5.4179770E+04
 2.1804242E+00  5.4730184E+04
 2.2204320E+00  5.5286312E+04
 2.2604399E+00  5.5876152E+04
 2.3004477E+00  5.6406832E+04
 2.3404555E+00  5.7007703E+04
 2.3804631E+00  5.7481746E+04
 2.4204710E+00  5.7916234E+04
 2.4604788E+00  5.8371949E+04
 2.5004866E+00  5.8744613E+04
 2.5404944E+00  5.8964363E+04
 2.5805020E+00  5.8850113E+04
 2.6205099E+00  5.8306992E+04
 2.6605177E+00  5.7311812E+04
 2.7005255E+00  5.5998348E+04
 2.7405334E+00  5.4481543E+04
 2.7805409E+00  5.2943703E+04
 2.8205488E+00  5.1571168E+04
 2.8605566E+00  5.0209871E+04
 2.9005644E+00  4.8903711E+04
 2.9405723E+00  4.7595047E+04
 2.9805801E+00  4.6337445E+04
 3.0205877E+00  4.5171352E+04
 3.0605955E+00  4.4067898E+04
 3.1006033E+00  4.2996309E+04
 3.1406112E+00  4.2024773E+04
 3.1806190E+00  4.1201379E+04
 3.2206266E+00  4.0502539E+04
 3.2606344E+00  3.9844883E+04
 3.3006423E+00  3.9220727E+04
 3.3406501E+00  3.8681113E+04
 3.3806579E+00  3.8196914E+04
 3.4206655E+00  3.7739156E+04
 3.4606733E+00  3.7346910E+04
 3.5006812E+00  3.7024094E+04
 3.5406890E+00  3.6644203E+04
 3.5806968E+00  3.6242551E+04
 3.6207047E+00  3.5796031E+04
 3.6607122E+00  3.5244633E+04
 3.7007201E+00  3.4601418E+04
 3.7407279E+00  3.3914770E+04
 3.7807357E+00  3.3149477E+04
 3.8207436E+00  3.2299084E+04
 3.8607512E+00  3.1452156E+04
 3.9007590E+00  3.0687842E+04
 3.9407668E+00  3.0016369E+04
 3.9807746E+00  2.9310293E+04
 4.0207825E+00  2.8653621E+04
 4.0607901E+00  2.8020855E+04
 4.1007981E+00  2.7429514E+04
 4.1408057E+00  2.6851576E+04
 4.1808133E+00  2.6267984E+04
 4.2208214E+00  2.5696080E+04
 4.2608290E+00  2.5159131E+04
 4.3008370E+00  2.4702400E+04
 4.3408446E+00  2.4261799E+04
 4.3808522E+00  2.3839152E+04
 4.4208603E+00  2.3408314E+04
 4.4608679E+00  2.3019402E+04
 4.5008759E+00  2.2664305E+04
 4.5408835E+00  2.2291695E+04
 4.5808916E+00  2.1964514E+04
 4.6208992E+00  2.1682557E+04
 4.6609068E+00  2.1436508E+04
 4.7009149E+00  2.1215746E+04
 4.7409225E+00  2.1011021E+04
 4.7809305E+00  2.0876990E+04
 4.8209381E+00  2.0750018E+04
 4.8609457E+00  2.0546561E+04
 4.9009538E+00  2.0355670E+04
 4.9409614E+00  2.0197771E+04
 4.9809694E+00  2.0066457E+04
 5.0209770E+00  1.9995168E+04
 5.0609846E+00  1.9838695E+04
 5.1009927E+00  1.9636830E+04
 5.1410003E+00  1.9501330E+04
 5.1810083E+00  1.9375080E+04
 5.2210159E+00  1.9214725E+04
 5.2610235E+00  1.9040385E+04
 5.3010316E+00  1.8881568E+04
 5.3410392E+00  1.8701895E+04
 5.3810472E+00  1.8542480E+04
 5.4210548E+00  1.8408758E+04
 5.4610624E+00  1.8287715E+04
 5.5010705E+00  1.8166256E+04
 5.5410781E+00  1.8043396E+04
 5.5810862E+00  1.7970799E+04
 5.6210938E+00  1.7875223E+04
 5.6611013E+00  1.7818311E+04
 5.7011094E+00  1.7786816E+04
 5.7411170E+00  1.7754516E+04
 5.7811251E+00  1.7751879E+04
 5.8211327E+00  1.7756951E+04
 5.8611407E+00  1.7801084E+04
 5.9011483E+00  1.7899730E+04
 5.9411559E+00  1.8024156E+04
 5.9811640E+00  1.8108156E+04
 6.0211716E+00  1.8057512E+04
 6.0611796E+00  1.7865467E+04
 6.1011872E+00  1.7666939E+04
 6.1411948E+00  1.7527539E+04
 6.1812029E+00  1.7351457E+04
 6.2212105E+00  1.7167004E+04
 6.2612185E+00  1.6967838E+04
 6.3012261E+00  1.6720268E+04
 6.3412337E+00  1.6510922E+04
 6.3812418E+00  1.6323479E+04
 6.4212494E+00  1.6137318E+04
 6.4612575E+00  1.5900843E+04
 6.5012650E+00  1.5690013E+04
 6.5412726E+00  1.5521963E+04
 6.5812807E+00  1.5309562E+04
 6.6212883E+00  1.5116089E+04
 6.6612964E+00  1.4959353E+04
 6.7013040E+00  1.4807610E+04
 6.7413116E+00  1.4648307E+04
 6.7813196E+00  1.4557408E+04
 6.8213272E+00  1.4487177E+04
 6.8613353E+00  1.4434634E+04
 6.9013429E+00  1.4365338E+04
 6.9413505E+00  1.4269707E+04
 6.9813585E+00  1.4119415E+04
 7.0213661E+00  1.3978181E+04
 7.0613742E+00  1.3853666E+04
 7.1013818E+00  1.3739104E+04
 7.1413898E+00  1.3644826E+04
 7.1813974E+00  1.3552644E+04
 7.2214050E+00  1.3465863E+04
 7.2614131E+00  1.3426136E+04
 7.3014207E+00  1.3385651E+04
 7.3414288E+00  1.3277136E+04
 7.3814363E+00  1.3180724E+04
 7.4214439E+00  1.3097150E+04
 7.4614520E+00  1.3032871E+04
 7.5014596E+00  1.2968884E+04
 7.5414677E+00  1.2931122E+04
 7.5814753E+00  1.2886658E+04
 7.6214828E+00  1.2807414E+04
 7.6614909E+00  1.2743925E+04
 7.7014985E+00  1.2666550E+04
 7.7415066E+00  1.2611908E+04
 7.7815142E+00  1.2547188E+04
 7.8215218E+00  1.2473151E+04
 7.8615298E+00  1.2421370E+04
 7.9015374E+00  1.2372820E+04
 7.9415455E+00  1.2348729E+04
 7.9815531E+00  1.2313013E+04
 8.0215607E+00  1.2241151E+04
 8.0615683E+00  1.2195341E+04
 8.1015768E+00  1.2168773E+04
 8.1415844E+00  1.2140712E+04
 8.1815920E+00  1.2093421E+04
 8.2215996E+00  1.2048370E+04
 8.2616072E+00  1.1986535E+04
 8.3016157E+00  1.1956212E+04
 8.3416233E+00  1.1932563E+04
 8.3816309E+00  1.1921353E+04
 8.4216385E+00  1.1886879E+04
 8.4616461E+00  1.1840395E+04
 8.5016546E+00  1.1797896E+04
 8.5416622E+00  1.1747978E+04
 8.5816698E+00  1.1721864E+04
 8.6216774E+00  1.1685725E+04
 8.6616850E+00  1.1642204E+04
 8.7016935E+00  1.1617579E+04
 8.7417011E+00  1.1584860E+04
 8.7817087E+00  1.1542765E+04
 8.8217163E+00  1.1521682E+04
 8.8617239E+00  1.1503590E+04
 8.9017324E+00  1.1474356E+04
 8.9417400E+00  1.1442025E+04
 8.9817476E+00  1.1436304E+04
 9.0217552E+00  1.1411152E+04
 9.0617638E+00  1.1405012E+04
 9.1017714E+00  1.1411395E+04
 9.1417789E+00  1.1405850E+04
 9.1817865E+00  1.1413157E+04
 9.2217941E+00  1.1406762E+04
 9.2618027E+00  1.1365423E+04
 9.3018103E+00  1.1367152E+04
 9.3418179E+00  1.1393242E+04
 9.3818254E+00  1.1416558E+04
 9.4218330E+00  1.1432839E+04
 9.4618416E+00  1.1447617E+04
 9.5018492E+00  1.1437018E+04
 9.5418568E+00  1.1450322E+04
 9.5818644E+00  1.1474277E+04
 9.6218719E+00  1.1491941E+04
 9.6618805E+00  1.1518682E+04
 9.7018881E+00  1.1576898E+04
 9.7418957E+00  1.1643180E+04
 9.7819033E+00  1.1684188E+04
 9.8219109E+00  1.1693113E+04
 9.8619194E+00  1.1670380E+04
 9.9019270E+00  1.1648516E+04
 9.9419346E+00  1.1645764E+04
 9.9819422E+00  1.1682857E+04
 1.0021950E+01  1.1721105E+04
 1.0061958E+01  1.1740825E+04
 1.0101966E+01  1.1754640E+04
 1.0141973E+01  1.1755529E+04
 1.0181981E+01  1.1739802E+04
 1.0221989E+01  1.1728913E+04
 1.0261997E+01  1.1763560E+04
 1.0302005E+01  1.1741494E+04
 1.0342012E+01  1.1720210E+04
 1.0382020E+01  1.1732494E+04
 1.0422028E+01  1.1729596E+04
 1.0462036E+01  1.1723847E+04
 1.0502044E+01  1.1719812E+04
 1.0542051E+01  1.1695973E+04
 1.0582059E+01  1.1669111E+04
 1.0622066E+01  1.1635828E+04
 1.0662075E+01  1.1628314E+04
 1.0702083E+01  1.1644068E+04
 1.0742090E+01  1.1622787E+04
 1.0782098E+01  1.1585015E+04
 1.0822105E+01  1.1576666E+04
 1.0862114E+01  1.1562822E+04
 1.0902122E+01  1.1556193E+04
 1.0942129E+01  1.1557051E+04
 1.0982137E+01  1.1548690E+04
 1.1022144E+01  1.1549906E+04
 1.1062153E+01  1.1545488E+04
 1.1102160E+01  1.1525997E+04
 1.1142168E+01  1.1505327E+04
 1.1182176E+01  1.1505132E+04
 1.1222183E+01  1.1487666E+04
 1.1262192E+01  1.1469302E+04
 1.1302199E+01  1.1453082E+04
 1.1342207E+01  1.1442033E+04
 1.1382215E+01  1.1448898E+04
 1.1422222E+01  1.1478209E+04
 1.1462231E+01  1.1502367E+04
 1.1502238E+01  1.1462644E+04
 1.1542246E+01  1.1355543E+04
 1.1582253E+01  1.1245983E+04
 1.1622262E+01  1.1142278E+04
 1.1662270E+01  1.1066031E+04
 1.1702277E+01  1.1020977E+04
 1.1742285E+01  1.1000443E+04
 1.1782292E+01  1.0981821E+04
 1.1822301E+01  1.0937176E+04
 1.1862309E+01  1.0877828E+04
 1.1902316E+01  1.0870946E+04
 1.1942324E+01  1.0853646E+04
 1.1982331E+01  1.0832048E+04
 1.2022340E+01  1.0826273E+04
 1.2062347E+01  1.0766257E+04
 1.2102355E+01  1.0634942E+04
 1.2142363E+01  1.0556669E+04
 1.2182370E+01  1.0540986E+04
 1.2222379E+01  1.0527954E+04
 1.2262386E+01  1.0490121E+04
 1.2302394E+01  1.0452191E+04
 1.2342402E+01  1.0417728E+04
 1.2382409E+01  1.0378000E+04
 1.2422418E+01  1.0346768E+04
 1.2462425E+01  1.0302233E+04
 1.2502433E+01  1.0267362E+04
 1.2542440E+01  1.0246400E+04
 1.2582448E+01  1.0225019E+04
 1.2622457E+01  1.0176829E+04
 1.2662464E+01  1.0130294E+04
 1.2702472E+01  1.0094678E+04
 1.2742479E+01  1.0077181E+04
 1.2782487E+01  1.0070905E+04
 1.2822495E+01  1.0030555E+04
 1.2862503E+01  9.9809170E+03
 1.2902511E+01  9.9900264E+03
 1.2942518E+01  9.9835566E+03
 1.2982526E+01  9.9321699E+03
 1.3022534E+01  9.9183252E+03
 1.3062542E+01  9.9142305E+03
 1.3102550E+01  9.8891504E+03
 1.3142557E+01  9.8710537E+03
 1.3182565E+01  9.8253281E+03
 1.3222573E+01  9.7684541E+03
 1.3262581E+01  9.7638525E+03
 1.3302588E+01  9.7236465E+03
 1.3342596E+01  9.7099463E+03
 1.3382604E+01  9.7239062E+03
 1.3422612E+01  9.6943438E+03
 1.3462620E+01  9.6955635E+03
 1.3502627E+01  9.6668047E+03
 1.3542635E+01  9.6381982E+03
 1.3582643E+01  9.6361748E+03
 1.3622651E+01  9.6163740E+03
 1.3662659E+01  9.5893037E+03
 1.3702666E+01  9.5768711E+03
 1.3742674E+01  9.5801914E+03
 1.3782681E+01  9.5565557E+03
 1.3822690E+01  9.5456387E+03
 1.3862698E+01  9.5391572E+03
 1.3902705E+01  9.5099531E+03
 1.3942713E+01  9.4878164E+03
 1.3982720E+01  9.4793682E+03
 1.4022729E+01  9.4487090E+03
 1.4062737E+01  9.4201221E+03
 1.4102744E+01  9.4208604E+03
 1.4142752E+01  9.3824521E+03
 1.4182760E+01  9.3829932E+03
 1.4222768E+01  9.3542295E+03
 1.4262775E+01  9.3211416E+03
 1.4302783E+01  9.3215361E+03
 1.4342791E+01  9.3226172E+03
 1.4382799E+01  9.3247393E+03
 1.4422807E+01  9.3151074E+03
 1.4462814E+01  9.3255059E+03
 1.4502822E+01  9.3376777E+03
 1.4542830E+01  9.3203506E+03
 1.4582838E+01  9.2754316E+03
 1.4622846E+01  9.2441758E+03
 1.4662853E+01  9.2599238E+03
 1.4702861E+01  9.2556211E+03
 1.4742868E+01  9.2567607E+03
 1.4782877E+01  9.2467109E+03
 1.4822885E+01  9.2543896E+03
 1.4862892E+01  9.2457266E+03
 1.4902900E+01  9.2317080E+03
 1.4942907E+01  9.2503262E+03
 1.4982916E+01  9.2531006E+03
 1.5022923E+01  9.2399609E+03
 1.5062931E+01  9.2720732E+03
 1.5102939E+01  9.2813691E+03
 1.5142946E+01  9.2766973E+03
 1.5182955E+01  9.2461006E+03
 1.5222962E+01  9.2325713E+03
 1.5262970E+01  9.1954385E+03
 1.5302978E+01  9.1619316E+03
 1.5342985E+01  9.1672012E+03
 1.5382994E+01  9.1644316E+03
 1.5423001E+01  9.1680732E+03
 1.5463009E+01  9.1818760E+03
 1.5503016E+01  9.1913828E+03
 1.5543024E+01  9.1748955E+03
 1.5583033E+01  9.1349697E+03
 1.5623040E+01  9.1175527E+03
 1.5663048E+01  9.1071494E+03
 1.5703055E+01  9.0922002E+03
 1.5743063E+01  9.0877627E+03
 1.5783072E+01  9.0851729E+03
 1.5823079E+01  9.0626719E+03
 1.5863087E+01  9.0688564E+03
 1.5903094E+01  9.0716045E+03
 1.5943102E+01  9.0724531E+03
 1.5983110E+01  9.0486416E+03
 1.6023117E+01  9.0311680E+03
 1.6063126E+01  9.0253750E+03
 1.6103134E+01  9.0415137E+03
 1.6143141E+01  9.0506230E+03
 1.6183149E+01  9.0417178E+03
 1.6223156E+01  9.0454775E+03
 1.6263165E+01  9.0495781E+03
 1.6303173E+01  9.0493770E+03
 1.6343180E+01  9.0495703E+03
 1.6383188E+01  9.0441318E+03
 1.6423195E+01  9.0621289E+03
 1.6463203E+01  9.0604883E+03
 1.6503212E+01  9.0530137E+03
 1.6543219E+01  9.0515996E+03
 1.6583227E+01  9.0492490E+03
 1.6623234E+01  9.0503516E+03
 1.6663242E+01  9.0609102E+03
 1.6703251E+01  9.0578076E+03
 1.6743258E+01  9.0691680E+03
 1.6783266E+01  9.0716836E+03
 1.6823273E+01  9.0580957E+03
 1.6863281E+01  9.0899473E+03
 1.6903290E+01  9.1002969E+03
 1.6943296E+01  9.1105801E+03
 1.6983305E+01  9.1393643E+03
 1.7023312E+01  9.1424395E+03
 1.7063320E+01  9.1444473E+03
 1.7103329E+01  9.1079434E+03
 1.7143335E+01  9.0723779E+03
 1.7183344E+01  9.0682666E+03
 1.7223351E+01  9.0456230E+03
 1.7263359E+01  9.0494951E+03
 1.7303368E+01  9.0456611E+03
 1.7343374E+01  9.0345078E+03
 1.7383383E+01  9.0289287E+03
 1.7423389E+01  9.0133340E+03
 1.7463398E+01  8.9927109E+03
 1.7503407E+01  8.9858428E+03
 1.7543413E+01  8.9708506E+03
 1.7583422E+01  8.9604961E+03
 1.7623428E+01  8.9441885E+03
 1.7663437E+01  8.9228574E+03
 1.7703445E+01  8.8932988E+03
 1.7743452E+01  8.8905625E+03
 1.7783461E+01  8.9060674E+03
 1.7823467E+01  8.9030625E+03
 1.7863476E+01  8.8909268E+03
 1.7903484E+01  8.8741787E+03
 1.7943491E+01  8.8746084E+03
 1.7983500E+01  8.8758584E+03
 1.8023508E+01  8.8837246E+03
 1.8063515E+01  8.8756494E+03
 1.8103523E+01  8.8630283E+03
 1.8143530E+01  8.8261572E+03
 1.8183538E+01  8.7975391E+03
 1.8223547E+01  8.7927109E+03
 1.8263554E+01  8.7816270E+03
 1.8303562E+01  8.7457041E+03
 1.8343569E+01  8.7376816E+03
 1.8383577E+01  8.7525596E+03
 1.8423586E+01  8.7513809E+03
 1.8463593E+01  8.7318838E+03
 1.8503601E+01  8.7099414E+03
 1.8543608E+01  8.6735801E+03
 1.8583616E+01  8.6411465E+03
 1.8623625E+01  8.6498281E+03
 1.8663631E+01  8.6489961E+03
 1.8703640E+01  8.6466221E+03
 1.8743647E+01  8.6215127E+03
 1.8783655E+01  8.6187344E+03
 1.8823664E+01  8.6243037E+03
 1.8863670E+01  8.6146348E+03
 1.8903679E+01  8.6022139E+03
 1.8943686E+01  8.5824648E+03
 1.8983694E+01  8.5748525E+03
 1.9023703E+01  8.5599521E+03
 1.9063709E+01  8.5433984E+03
 1.9103718E+01  8.5307646E+03
 1.9143724E+01  8.5290293E+03
 1.9183733E+01  8.5247529E+03
 1.9223742E+01  8.5205293E+03
 1.9263748E+01  8.5222676E+03
 1.9303757E+01  8.5102598E+03
 1.9343763E+01  8.5181035E+03
 1.9383772E+01  8.5293633E+03
 1.9423780E+01  8.5155049E+03
 1.9463787E+01  8.5118740E+03
 1.9503796E+01  8.5183164E+03
 1.9543802E+01  8.5209443E+03
 1.9583811E+01  8.5122334E+03
 1.9623819E+01  8.5256367E+03
 1.9663826E+01  8.5162432E+03
 1.9703835E+01  8.4967402E+03
 1.9743841E+01  8.5011836E+03
 1.9783850E+01  8.4942725E+03
 1.9823858E+01  8.4825098E+03
 1.9863865E+01  8.4883994E+03
 1.9903873E+01  8.4963291E+03
 1.9943880E+01  8.4909512E+03
 1.9983889E+01  8.4833359E+03
 2.0023897E+01  8.4911045E+03
 2.0063904E+01  8.4959658E+03
 2.0103912E+01  8.4818174E+03
 2.0143919E+01  8.4712314E+03
 2.0183928E+01  8.4641973E+03
 2.0223936E+01  8.4642754E+03
 2.0263943E+01  8.4685488E+03
 2.0303951E+01  8.4780605E+03
 2.0343958E+01  8.4726904E+03
 2.0383966E+01  8.4607471E+03
 2.0423975E+01  8.4559473E+03
 2.0463982E+01  8.4654971E+03
 2.0503990E+01  8.4756963E+03
 2.0543997E+01  8.4799375E+03
 2.0584005E+01  8.4908320E+03
 2.0624014E+01  8.4818359E+03
 2.0664021E+01  8.4500986E+03
 2.0704029E+01  8.4365996E+03
 2.0744036E+01  8.4344102E+03
 2.0784044E+01  8.4380459E+03
 2.0824053E+01  8.4263594E+03
 2.0864059E+01  8.4579678E+03
 2.0904068E+01  8.4400352E+03
 2.0944075E+01  8.4405439E+03
 2.0984083E+01  8.4227061E+03
 2.1024092E+01  8.3924873E+03
 2.1064098E+01  8.3752266E+03
 2.1104107E+01  8.3575410E+03
 2.1144114E+01  8.3652656E+03
 2.1184122E+01  8.3617793E+03
 2.1224131E+01  8.3603701E+03
 2.1264137E+01  8.3551777E+03
 2.1304146E+01  8.3588555E+03
 2.1344152E+01  8.3537930E+03
 2.1384161E+01  8.3219727E+03
 2.1424170E+01  8.3162881E+03
 2.1464176E+01  8.3171729E+03
 2.1504185E+01  8.3095527E+03
 2.1544191E+01  8.2986621E+03
 2.1584200E+01  8.2790664E+03
 2.1624208E+01  8.2730596E+03
 2.1664215E+01  8.2605820E+03
 2.1704224E+01  8.2614873E+03
 2.1744230E+01  8.2610361E+03
 2.1784239E+01  8.2614951E+03
 2.1824247E+01  8.2339375E+03
 2.1864254E+01  8.2171221E+03
 2.1904263E+01  8.2182627E+03
 2.1944269E+01  8.2229248E+03
 2.1984278E+01  8.2292832E+03
 2.2024286E+01  8.1906968E+03
 2.2064293E+01  8.1781646E+03
 2.2104301E+01  8.1732622E+03
 2.2144308E+01  8.1433467E+03
 2.2184317E+01  8.1429165E+03
 2.2224325E+01  8.1308535E+03
 2.2264332E+01  8.1127432E+03
 2.2304340E+01  8.0715220E+03
 2.2344347E+01  8.0646553E+03
 2.2384356E+01  8.0798154E+03
 2.2424364E+01  8.0620088E+03
 2.2464371E+01  8.0447002E+03
 2.2504379E+01  8.0314971E+03
 2.2544386E+01  8.0242080E+03
 2.2584394E+01  8.0059810E+03
 2.2624403E+01  8.0022778E+03
 2.2664410E+01  8.0085972E+03
 2.2704418E+01  7.9993345E+03
 2.2744425E+01  7.9773242E+03
 2.2784433E+01  7.9803408E+03
 2.2824442E+01  7.9808135E+03
 2.2864449E+01  7.9521099E+03
 2.2904457E+01  7.9455610E+03
 2.2944464E+01  7.9526084E+03
 2.2984472E+01  7.9458481E+03
 2.3024481E+01  7.9478105E+03
 2.3064487E+01  7.9215708E+03
 2.3104496E+01  7.8967402E+03
 2.3144505E+01  7.8969844E+03
 2.3184511E+01  7.9185835E+03
 2.3224520E+01  7.9022686E+03
 2.3264526E+01  7.8750737E+03
 2.3304535E+01  7.8497251E+03
 2.3344543E+01  7.8439263E+03
 2.3384550E+01  7.8433574E+03
 2.3424559E+01  7.8265195E+03
 2.3464565E+01  7.8301182E+03
 2.3504574E+01  7.8207310E+03
 2.3544582E+01  7.7919297E+03
 2.3584589E+01  7.7786660E+03
 2.3624598E+01  7.7740791E+03
 2.3664604E+01  7.7717202E+03
 2.3704613E+01  7.7680254E+03
 2.3744621E+01  7.7858354E+03
 2.3784628E+01  7.7782632E+03
 2.3824636E+01  7.7480562E+03
 2.3864643E+01  7.7380137E+03
 2.3904652E+01  7.7395552E+03
 2.3944660E+01  7.7344409E+03
 2.3984667E+01  7.7296870E+03
 2.4024675E+01  7.7121152E+03
 2.4064682E+01  7.6857710E+03
 2.4104691E+01  7.7067617E+03
 2.4144699E+01  7.7221992E+03
 2.4184706E+01  7.7195254E+03
 2.4224714E+01  7.7095991E+03
 2.4264721E+01  7.6926538E+03
 2.4304729E+01  7.6843364E+03
 2.4344738E+01  7.6687886E+03
 2.4384745E+01  7.6610400E+03
 2.4424753E+01  7.6626777E+03
 2.4464760E+01  7.6602681E+03
 2.4504768E+01  7.6651025E+03
 2.4544777E+01  7.6664624E+03
 2.4584784E+01  7.6534238E+03
 2.4624792E+01  7.6489839E+03
 2.4664799E+01  7.6407188E+03
 2.4704807E+01  7.6438374E+03
 2.4744816E+01  7.6426147E+03
 2.4784822E+01  7.6376123E+03
 2.4824831E+01  7.6350874E+03
 2.4864838E+01  7.6330142E+03
 2.4904846E+01  7.6429312E+03
 2.4944855E+01  7.6446089E+03
 2.4984861E+01  7.6192847E+03
 2.5024870E+01  7.6028555E+03
 2.5064877E+01  7.5993672E+03
 2.5104885E+01  7.5887231E+03
 2.5144894E+01  7.6031362E+03
 2.5184900E+01  7.6074746E+03
 2.5224909E+01  7.5844424E+03
 2.5264915E+01  7.5843828E+03
 2.5304924E+01  7.5695103E+03
 2.5344933E+01  7.5710903E+03
 2.5384939E+01  7.5742271E+03
 2.5424948E+01  7.5711138E+03
 2.5464954E+01  7.5637622E+03
 2.5504963E+01  7.5483901E+03
 2.5544971E+01  7.5573252E+03
 2.5584978E+01  7.5624175E+03
 2.5624987E+01  7.5528130E+03
 2.5664993E+01  7.5553149E+03
 2.5705002E+01  7.5456514E+03
 2.5745010E+01  7.5504712E+03
 2.5785017E+01  7.5314507E+03
 2.5825026E+01  7.5108794E+03
 2.5865032E+01  7.5274336E+03
 2.5905041E+01  7.5224248E+03
 2.5945049E+01  7.5263657E+03
 2.5985056E+01  7.5213687E+03
 2.6025064E+01  7.5228491E+03
 2.6065071E+01  7.5170156E+03
 2.6105080E+01  7.5285425E+03
 2.6145088E+01  7.5120952E+03
 2.6185095E+01  7.5102881E+03
 2.6225103E+01  7.5231372E+03
 2.6265110E+01  7.5111729E+03
 2.6305119E+01  7.5042861E+03
 2.6345127E+01  7.4944302E+03
 2.6385134E+01  7.5086899E+03
 2.6425142E+01  7.4981431E+03
 2.6465149E+01  7.4964976E+03
 2.6505157E+01  7.5059512E+03
 2.6545166E+01  7.5121763E+03
 2.6585173E+01  7.5061157E+03
 2.6625181E+01  7.5088296E+03
 2.6665188E+01  7.4901699E+03
 2.6705196E+01  7.4869199E+03
 2.6745205E+01  7.4879229E+03
 2.6785212E+01  7.4823696E+03
 2.6825220E+01  7.5019570E+03
 2.6865227E+01  7.5115820E+03
 2.6905235E+01  7.4906299E+03
 2.6945244E+01  7.4765718E+03
 2.6985250E+01  7.4662988E+03
 2.7025259E+01  7.4709668E+03
 2.7065266E+01  7.4805898E+03
 2.7105274E+01  7.4585698E+03
 2.7145283E+01  7.4451938E+03
 2.7185289E+01  7.4565386E+03
 2.7225298E+01  7.4595996E+03
 2.7265305E+01  7.4491978E+03
 2.7305313E+01  7.4514141E+03
 2.7345322E+01  7.4553018E+03
 2.7385328E+01  7.4400718E+03
 2.7425337E+01  7.4192729E+03
 2.7465343E+01  7.4039985E+03
 2.7505352E+01  7.4016201E+03
 2.7545361E+01  7.4097427E+03
 2.7585367E+01  7.3821074E+03
 2.7625376E+01  7.3930747E+03
 2.7665382E+01  7.3669746E+03
 2.7705391E+01  7.3459692E+03
 2.7745399E+01  7.3278398E+03
 2.7785406E+01  7.3336797E+03
 2.7825415E+01  7.3402212E+03
 2.7865421E+01  7.3328198E+03
 2.7905430E+01  7.3420742E+03
 2.7945438E+01  7.3617041E+03
 2.7985445E+01  7.3475464E+03
 2.8025454E+01  7.3250913E+03
 2.8065460E+01  7.3154971E+03
 2.8105469E+01  7.3040269E+03
 2.8145477E+01  7.2740464E+03
 2.8185484E+01  7.2858467E+03
 2.8225492E+01  7.2733359E+03
 2.8265501E+01  7.2646411E+03
 2.8305508E+01  7.2616543E+03
 2.8345516E+01  7.2555083E+03
 2.8385523E+01  7.2697588E+03
 2.8425531E+01  7.2387876E+03
 2.8465540E+01  7.2362275E+03
 2.8505547E+01  7.2391909E+03
 2.8545555E+01  7.2429756E+03
 2.8585562E+01  7.2276201E+03
 2.8625570E+01  7.2332119E+03
 2.8665579E+01  7.2126323E+03
 2.8705585E+01  7.2076245E+03
 2.8745594E+01  7.2024062E+03
 2.8785601E+01  7.1928496E+03
 2.8825609E+01  7.2124014E+03
 2.8865618E+01  7.1907363E+03
 2.8905624E+01  7.1790332E+03
 2.8945633E+01  7.1889072E+03
 2.8985640E+01  7.1872212E+03
 2.9025648E+01  7.1766426E+03
 2.9065657E+01  7.1747456E+03
 2.9105663E+01  7.1774482E+03
 2.9145672E+01  7.1831362E+03
 2.9185678E+01  7.1603804E+03
 2.9225687E+01  7.1542891E+03
 2.9265696E+01  7.1498657E+03
 2.9305702E+01  7.1355952E+03
 2.9345711E+01  7.1129146E+03
 2.9385717E+01  7.1224912E+03
 2.9425726E+01  7.1310479E+03
 2.9465734E+01  7.1358350E+03
 2.9505741E+01  7.1481465E+03
 2.9545750E+01  7.1400293E+03
 2.9585756E+01  7.1165640E+03
 2.9625765E+01  7.0951802E+03
 2.9665773E+01  7.0877651E+03
 2.9705780E+01  7.0916602E+03
 2.9745789E+01  7.0799575E+03
 2.9785795E+01  7.0924521E+03
 2.9825804E+01  7.0794458E+03
 2.9865812E+01  7.0358618E+03
 2.9905819E+01  7.0318203E+03
 2.9945827E+01  7.0440566E+03
 2.9985834E+01  7.0281802E+03
 3.0025843E+01  7.0134434E+03
 3.0065851E+01  7.0319307E+03
 3.0105858E+01  7.0495923E+03
 3.0145866E+01  7.0440186E+03
 3.0185873E+01  7.0173486E+03
 3.0225882E+01  7.0050635E+03
 3.0265890E+01  7.0053979E+03
 3.0305897E+01  7.0058027E+03
 3.0345905E+01  7.0021895E+03
 3.0385912E+01  7.0004468E+03
 3.0425920E+01  7.0215840E+03
 3.0465929E+01  7.0009609E+03
 3.0505936E+01  7.0070449E+03
 3.0545944E+01  6.9971528E+03
 3.0585951E+01  6.9704707E+03
 3.0625959E+01  6.9596362E+03
 3.0665968E+01  6.9791470E+03
 3.0705975E+01  6.9801387E+03
 3.0745983E+01  6.9923687E+03
 3.0785990E+01  6.9735347E+03
 3.0825998E+01  6.9621987E+03
 3.0866007E+01  6.9574448E+03
 3.0906013E+01  6.9215591E+03
 3.0946022E+01  6.9328491E+03
 3.0986029E+01  6.9555776E+03
 3.1026037E+01  6.9437231E+03
 3.1066046E+01  6.9246055E+03
 3.1106052E+01  6.8998672E+03
 3.1146061E+01  6.9159678E+03
 3.1186068E+01  6.9310562E+03
 3.1226076E+01  6.9291519E+03
 3.1266085E+01  6.9166333E+03
 3.1306091E+01  6.9129116E+03
 3.1346100E+01  6.9050015E+03
 3.1386106E+01  6.9256099E+03
 3.1426115E+01  6.9231851E+03
 3.1466124E+01  6.9119512E+03
 3.1506130E+01  6.9042891E+03
 3.1546139E+01  6.8927974E+03
 3.1586145E+01  6.8668579E+03
 3.1626154E+01  6.8687505E+03
 3.1666162E+01  6.8758931E+03
 3.1706169E+01  6.8642109E+03
 3.1746178E+01  6.8539424E+03
 3.1786184E+01  6.8622559E+03
 3.1826193E+01  6.8596240E+03
 3.1866201E+01  6.8318950E+03
 3.1906208E+01  6.8456230E+03
 3.1946217E+01  6.8506929E+03
 3.1986223E+01  6.8201152E+03
 3.2026234E+01  6.8405273E+03
 3.2066238E+01  6.8258774E+03
 3.2106247E+01  6.8272495E+03
 3.2146255E+01  6.8126709E+03
 3.2186264E+01  6.8016997E+03
 3.2226273E+01  6.8225708E+03
 3.2266277E+01  6.8247573E+03
 3.2306286E+01  6.8249307E+03
 3.2346294E+01  6.8079248E+03
 3.2386303E+01  6.8005449E+03
 3.2426311E+01  6.7817837E+03
 3.2466316E+01  6.7728584E+03
 3.2506325E+01  6.7856831E+03
 3.2546333E+01  6.8064092E+03
 3.2586342E+01  6.7731313E+03
 3.2626350E+01  6.7870527E+03
 3.2666355E+01  6.7767256E+03
 3.2706364E+01  6.7509175E+03
 3.2746372E+01  6.7713516E+03
 3.2786381E+01  6.7654980E+03
 3.2826389E+01  6.7764995E+03
 3.2866394E+01  6.7659946E+03
 3.2906403E+01  6.7734380E+03
 3.2946411E+01  6.7444814E+03
 3.2986420E+01  6.7427993E+03
 3.3026428E+01  6.7514746E+03
 3.3066433E+01  6.7349448E+03
 3.3106441E+01  6.7250845E+03
 3.3146450E+01  6.7266289E+03
 3.3186459E+01  6.7532920E+03
 3.3226467E+01  6.7314058E+03
 3.3266472E+01  6.7167544E+03
 3.3306480E+01  6.7179111E+03
 3.3346489E+01  6.7019868E+03
 3.3386497E+01  6.7017212E+03
 3.3426506E+01  6.7050410E+03
 3.3466511E+01  6.6875303E+03
 3.3506519E+01  6.6921538E+03
 3.3546528E+01  6.6955479E+03
 3.3586536E+01  6.7024712E+03
 3.3626545E+01  6.6803608E+03
 3.3666550E+01  6.6473511E+03
 3.3706558E+01  6.6442798E+03
 3.3746567E+01  6.6549712E+03
 3.3786575E+01  6.6568413E+03
 3.3826584E+01  6.6534819E+03
 3.3866589E+01  6.6550156E+03
 3.3906597E+01  6.6597046E+03
 3.3946606E+01  6.6590142E+03
 3.3986614E+01  6.6215200E+03
 3.4026623E+01  6.6287905E+03
 3.4066628E+01  6.6380391E+03
 3.4106636E+01  6.6171353E+03
 3.4146645E+01  6.5990918E+03
 3.4186653E+01  6.6000762E+03
 3.4226662E+01  6.6196191E+03
 3.4266666E+01  6.6070591E+03
 3.4306675E+01  6.6054399E+03
 3.4346684E+01  6.6264038E+03
 3.4386692E+01  6.5905918E+03
 3.4426701E+01  6.6217773E+03
 3.4466705E+01  6.6108560E+03
 3.4506714E+01  6.5750732E+03
 3.4546722E+01  6.5658560E+03
 3.4586731E+01  6.5824238E+03
 3.4626740E+01  6.5843848E+03
 3.4666744E+01  6.5924653E+03
 3.4706753E+01  6.5730190E+03
 3.4746761E+01  6.5572500E+03
 3.4786770E+01  6.5630132E+03
 3.4826778E+01  6.5553228E+03
 3.4866783E+01  6.5723345E+03
 3.4906792E+01  6.5580205E+03
 3.4946800E+01  6.5494282E+03
 3.4986809E+01  6.5395078E+03
 3.5026817E+01  6.5177812E+03
 3.5066822E+01  6.5269434E+03
 3.5106831E+01  6.5408140E+03
 3.5146839E+01  6.5232168E+03
 3.5186848E+01  6.5411987E+03
 3.5226856E+01  6.5367300E+03
 3.5266861E+01  6.5223115E+03
 3.5306870E+01  6.5304800E+03
 3.5346878E+01  6.5312061E+03
 3.5386887E+01  6.5033965E+03
 3.5426895E+01  6.5054395E+03
 3.5466900E+01  6.5162070E+03
 3.5506908E+01  6.5098989E+03
 3.5546917E+01  6.5134795E+03
 3.5586926E+01  6.5156548E+03
 3.5626934E+01  6.5088828E+03
 3.5666939E+01  6.5162466E+03
 3.5706947E+01  6.4780054E+03
 3.5746956E+01  6.5116177E+03
 3.5786964E+01  6.4714595E+03
 3.5826973E+01  6.5017583E+03
 3.5866978E+01  6.5102998E+03
 3.5906986E+01  6.4851030E+03
 3.5946995E+01  6.4844224E+03
 3.5987003E+01  6.4886001E+03
 3.6027012E+01  6.4944326E+03
 3.6067017E+01  6.4511758E+03
 3.6107025E+01  6.4860483E+03
 3.6147034E+01  6.4847407E+03
 3.6187042E+01  6.4605146E+03
 3.6227051E+01  6.4525596E+03
 3.6267056E+01  6.4620132E+03
 3.6307064E+01  6.4798486E+03
 3.6347073E+01  6.4611689E+03
 3.6387081E+01  6.4194878E+03
 3.6427090E+01  6.4158003E+03
 3.6467094E+01  6.4249385E+03
 3.6507103E+01  6.4145898E+03
 3.6547112E+01  6.4186777E+03
 3.6587120E+01  6.4249561E+03
 3.6627129E+01  6.4238438E+03
 3.6667133E+01  6.4160957E+03
 3.6707142E+01  6.4158335E+03
 3.6747150E+01  6.4209263E+03
 3.6787159E+01  6.4207847E+03
 3.6827168E+01  6.4160459E+03
 3.6867172E+01  6.4038809E+03
 3.6907181E+01  6.3935234E+03
 3.6947189E+01  6.3984312E+03
 3.6987198E+01  6.3969927E+03
 3.7027206E+01  6.3885664E+03
 3.7067211E+01  6.4131050E+03
 3.7107220E+01  6.4161157E+03
 3.7147228E+01  6.4057495E+03
 3.7187237E+01  6.4022510E+03
 3.7227245E+01  6.4146763E+03
 3.7267250E+01  6.3930630E+03
 3.7307259E+01  6.3605884E+03
 3.7347267E+01  6.3506406E+03
 3.7387276E+01  6.3892695E+03
 3.7427284E+01  6.3529858E+03
 3.7467289E+01  6.3553340E+03
 3.7507298E+01  6.3590796E+03
 3.7547306E+01  6.3447354E+03
 3.7587315E+01  6.3561001E+03
 3.7627323E+01  6.3551489E+03
 3.7667328E+01  6.3570664E+03
 3.7707336E+01  6.3762202E+03
 3.7747345E+01  6.3509883E+03
 3.7787354E+01  6.3291470E+03
 3.7827362E+01  6.3389629E+03
 3.7867367E+01  6.3371436E+03
 3.7907375E+01  6.3310020E+03
 3.7947384E+01  6.3229429E+03
 3.7987392E+01  6.3236289E+03
 3.8027401E+01  6.2685034E+03
 3.8067406E+01  6.3035444E+03
 3.8107414E+01  6.3187349E+03
 3.8147423E+01  6.3180718E+03
 3.8187431E+01  6.3063496E+03
 3.8227440E+01  6.2885723E+03
 3.8267445E+01  6.2656519E+03
 3.8307453E+01  6.2893135E+03
 3.8347462E+01  6.2822256E+03
 3.8387470E+01  6.2676973E+03
 3.8427479E+01  6.2729751E+03
 3.8467484E+01  6.2737461E+03
 3.8507492E+01  6.2848950E+03
 3.8547501E+01  6.2712393E+03
 3.8587509E+01  6.2756548E+03
 3.8627518E+01  6.2835942E+03
 3.8667522E+01  6.2867261E+03
 3.8707531E+01  6.2813804E+03
 3.8747540E+01  6.3641353E+03
 3.8787548E+01  6.2276899E+03
 3.8827557E+01  6.2567544E+03
 3.8867561E+01  6.2498628E+03
 3.8907570E+01  6.2245493E+03
 3.8947578E+01  6.2395366E+03
 3.8987587E+01  6.2215659E+03
 3.9027596E+01  6.2365498E+03
 3.9067600E+01  6.2143042E+03
 3.9107609E+01  6.2096401E+03
 3.9147617E+01  6.1925659E+03
 3.9187626E+01  6.1966035E+03
 3.9227634E+01  6.1849946E+03
 3.9267639E+01  6.2077803E+03
 3.9307648E+01  6.2093130E+03
 3.9347656E+01  6.2127324E+03
 3.9387665E+01  6.1987222E+03
 3.9427673E+01  6.1941729E+03
 3.9467678E+01  6.1935361E+03
 3.9507687E+01  6.2032490E+03
 3.9547695E+01  6.1775137E+03
 3.9587704E+01  6.1657178E+03
 3.9627712E+01  6.1717104E+03
 3.9667717E+01  6.1813271E+03
 3.9707726E+01  6.1747456E+03
 3.9747734E+01  6.1861021E+03
 3.9787743E+01  6.1679141E+03
 3.9827751E+01  6.1525986E+03
 3.9867756E+01  6.1563540E+03
 3.9907764E+01  6.1482734E+03
 3.9947773E+01  6.1594033E+03
 3.9987782E+01  6.1767563E+03
 4.0027790E+01  6.1277134E+03
 4.0067795E+01  6.1261050E+03
 4.0107803E+01  6.1119673E+03
 4.0147812E+01  6.1231074E+03
 4.0187820E+01  6.1080796E+03
 4.0227829E+01  6.1051880E+03
 4.0267834E+01  6.1257065E+03
 4.0307842E+01  6.1238096E+03
 4.0347851E+01  6.1189888E+03
 4.0387859E+01  6.1169370E+03
 4.0427868E+01  6.1301675E+03
 4.0467873E+01  6.1067964E+03
 4.0507881E+01  6.0825996E+03
 4.0547890E+01  6.1210688E+03
 4.0587898E+01  6.0973701E+03
 4.0627907E+01  6.0978169E+03
 4.0667912E+01  6.0934263E+03
 4.0707920E+01  6.0680771E+03
 4.0747929E+01  6.0886411E+03
 4.0787937E+01  6.0767744E+03
 4.0827946E+01  6.0808047E+03
 4.0867950E+01  6.0977739E+03
 4.0907959E+01  6.0692070E+03
 4.0947968E+01  6.0569141E+03
 4.0987976E+01  6.0802407E+03
 4.1027985E+01  6.0692568E+03
 4.1067993E+01  6.0594092E+03
 4.1107998E+01  6.0869731E+03
 4.1148006E+01  6.0665889E+03
 4.1188015E+01  6.0482388E+03
 4.1228024E+01  6.0430522E+03
 4.1268032E+01  6.0432661E+03
 4.1308037E+01  6.0343403E+03
 4.1348045E+01  6.0708677E+03
 4.1388054E+01  6.0579541E+03
 4.1428062E+01  6.0222358E+03
 4.1468071E+01  6.0276782E+03
 4.1508076E+01  6.0300654E+03
 4.1548084E+01  6.0415166E+03
 4.1588093E+01  6.0376577E+03
 4.1628101E+01  6.0128418E+03
 4.1668110E+01  6.0096177E+03
 4.1708115E+01  6.0025835E+03
 4.1748123E+01  6.0331558E+03
 4.1788132E+01  5.9762534E+03
 4.1828140E+01  6.0202334E+03
 4.1868149E+01  6.0194512E+03
 4.1908154E+01  6.0129561E+03
 4.1948162E+01  6.0152427E+03
 4.1988171E+01  6.0260176E+03
 4.2028179E+01  5.9823164E+03
 4.2068188E+01  5.9931572E+03
 4.2108192E+01  5.9786934E+03
 4.2148201E+01  5.9924868E+03
 4.2188210E+01  6.0041235E+03
 4.2228218E+01  5.9848701E+03
 4.2268227E+01  5.9793613E+03
 4.2308231E+01  6.0144863E+03
 4.2348240E+01  5.9771313E+03
 4.2388248E+01  5.9769902E+03
 4.2428257E+01  5.9753931E+03
 4.2468266E+01  5.9483740E+03
 4.2508270E+01  5.9646777E+03
 4.2548279E+01  5.9769868E+03
 4.2588287E+01  5.9705122E+03
 4.2628296E+01  5.9837129E+03
 4.2668304E+01  5.9487534E+03
 4.2708309E+01  5.9213657E+03
 4.2748318E+01  5.9503604E+03
 4.2788326E+01  5.9437505E+03
 4.2828335E+01  5.9511816E+03
 4.2868343E+01  5.9475977E+03
 4.2908348E+01  5.9357095E+03
 4.2948357E+01  5.9352197E+03
 4.2988365E+01  5.9365015E+03
 4.3028374E+01  5.9374399E+03
 4.3068382E+01  5.9121157E+03
 4.3108387E+01  5.9205234E+03
 4.3148396E+01  5.9296924E+03
 4.3188404E+01  5.9179541E+03
 4.3228413E+01  5.9179702E+03
 4.3268421E+01  5.8979321E+03
 4.3308426E+01  5.9028340E+03
 4.3348434E+01  5.9024531E+03
 4.3388443E+01  5.8997388E+03
 4.3428452E+01  5.8913438E+03
 4.3468460E+01  5.9086650E+03
 4.3508465E+01  5.8992422E+03
 4.3548473E+01  5.8930850E+03
 4.3588482E+01  5.9231768E+03
 4.3628490E+01  5.9453599E+03
 4.3668499E+01  5.9278555E+03
 4.3708504E+01  5.9375586E+03
 4.3748512E+01  5.8980908E+03
 4.3788521E+01  5.8983955E+03
 4.3828529E+01  5.8866597E+03
 4.3868538E+01  5.9146382E+03
 4.3908543E+01  5.9056187E+03
 4.3948551E+01  5.8991108E+03
 4.3988560E+01  5.9114121E+03
 4.4028568E+01  5.8856621E+03
 4.4068577E+01  5.8595425E+03
 4.4108582E+01  5.8954546E+03
 4.4148590E+01  5.9136685E+03
 4.4188599E+01  5.8328193E+03
 4.4228607E+01  5.8404482E+03
 4.4268616E+01  5.8625371E+03
 4.4308620E+01  5.8641426E+03
 4.4348629E+01  5.8710415E+03
 4.4388638E+01  5.8307031E+03
 4.4428646E+01  5.8379097E+03
 4.4468655E+01  5.8590098E+03
 4.4508659E+01  5.8676494E+03
 4.4548668E+01  5.8524507E+03
 4.4588676E+01  5.8688828E+03
 4.4628685E+01  5.8592700E+03
 4.4668694E+01  5.8278672E+03
 4.4708698E+01  5.8050298E+03
 4.4748707E+01  5.8229087E+03
 4.4788715E+01  5.8285605E+03
 4.4828724E+01  5.8070171E+03
 4.4868732E+01  5.8430430E+03
 4.4908737E+01  5.8444648E+03
 4.4948746E+01  5.8084507E+03
 4.4988754E+01  5.8001982E+03
 4.5028763E+01  5.8027437E+03
 4.5068771E+01  5.8133521E+03
 4.5108776E+01  5.8336846E+03
 4.5148785E+01  5.7950586E+03
 4.5188793E+01  5.8213784E+03
 4.5228802E+01  5.8719697E+03
 4.5268810E+01  5.7981050E+03
 4.5308815E+01  5.7927271E+03
 4.5348824E+01  5.7728193E+03
 4.5388832E+01  5.7572881E+03
 4.5428841E+01  5.7762681E+03
 4.5468849E+01  5.8257017E+03
 4.5508854E+01  5.7742632E+03
 4.5548862E+01  5.8118188E+03
 4.5588871E+01  5.8200947E+03
 4.5628880E+01  5.7702319E+03
 4.5668888E+01  5.7686777E+03
 4.5708893E+01  5.7768525E+03
 4.5748901E+01  5.7848877E+03
 4.5788910E+01  5.7632666E+03
 4.5828918E+01  5.7726909E+03
 4.5868927E+01  5.7726152E+03
 4.5908932E+01  5.7727520E+03
 4.5948940E+01  5.7660400E+03
 4.5988949E+01  5.7610557E+03
 4.6028957E+01  5.7594121E+03
 4.6068966E+01  5.7716304E+03
 4.6108971E+01  5.7333062E+03
 4.6148979E+01  5.7508540E+03
 4.6188988E+01  5.7763213E+03
 4.6228996E+01  5.7629922E+03
 4.6269005E+01  5.7273149E+03
 4.6309010E+01  5.7413384E+03
 4.6349018E+01  5.7129604E+03
 4.6389027E+01  5.7049604E+03
 4.6429035E+01  5.7085229E+03
 4.6469044E+01  5.7363999E+03
 4.6509048E+01  5.7414731E+03
 4.6549057E+01  5.6945947E+03
 4.6589066E+01  5.6844243E+03
 4.6629074E+01  5.7072271E+03
 4.6669083E+01  5.7475713E+03
 4.6709087E+01  5.7090449E+03
 4.6749096E+01  5.6944121E+03
 4.6789104E+01  5.7103604E+03
 4.6829113E+01  5.6894229E+03
 4.6869122E+01  5.7122642E+03
 4.6909126E+01  5.6966367E+03
 4.6949135E+01  5.6870581E+03
 4.6989143E+01  5.6951021E+03
 4.7029152E+01  5.6895957E+03
 4.7069160E+01  5.6737729E+03
 4.7109165E+01  5.7178872E+03
 4.7149174E+01  5.6963706E+03
 4.7189182E+01  5.6765913E+03
 4.7229191E+01  5.6609458E+03
 4.7269199E+01  5.6722612E+03
 4.7309204E+01  5.6720957E+03
 4.7349213E+01  5.6566816E+03
 4.7389221E+01  5.7237329E+03
 4.7429230E+01  5.7001348E+03
 4.7469238E+01  5.6697612E+03
 4.7509243E+01  5.6342905E+03
 4.7549252E+01  5.6362676E+03
 4.7589260E+01  5.6176572E+03
 4.7629269E+01  5.6504058E+03
 4.7669277E+01  5.6377168E+03
 4.7709282E+01  5.6210430E+03
 4.7749290E+01  5.6183296E+03
 4.7789299E+01  5.6033945E+03
 4.7829308E+01  5.6321514E+03
 4.7869316E+01  5.5639482E+03
 4.7909321E+01  5.5491084E+03
 4.7949329E+01  5.5907188E+03
 4.7989338E+01  5.5761665E+03
 4.8029346E+01  5.5407275E+03
 4.8069355E+01  5.5272363E+03
 4.8109360E+01  5.4799653E+03
 4.8149368E+01  5.4826206E+03
 4.8189377E+01  5.5123770E+03
 4.8229385E+01  5.5617837E+03
 4.8269394E+01  5.5820039E+03
 4.8309399E+01  5.5642974E+03
 4.8349407E+01  5.5443198E+03
 4.8389416E+01  5.5979805E+03
 4.8429424E+01  5.5694526E+03
 4.8469433E+01  5.5324512E+03
 4.8509438E+01  5.5487598E+03
 4.8549446E+01  5.5264390E+03
 4.8589455E+01  5.5309243E+03
 4.8629463E+01  5.4960918E+03
 4.8669472E+01  5.4881104E+03
 4.8709476E+01  5.4856304E+03
 4.8749485E+01  5.5249946E+03
 4.8789494E+01  5.4644233E+03
 4.8829502E+01  5.4392236E+03
 4.8869511E+01  5.4174409E+03
 4.8909515E+01  5.4650566E+03
 4.8949524E+01  5.4999639E+03
 4.8989532E+01  5.4593379E+03
 4.9029541E+01  5.5252183E+03
 4.9069550E+01  5.4376396E+03
 4.9109554E+01  5.4751299E+03
 4.9149563E+01  5.4613872E+03
 4.9189571E+01  5.4736812E+03
 4.9229580E+01  5.4834121E+03
 4.9269588E+01  5.4533950E+03
 4.9309593E+01  5.4273989E+03
 4.9349602E+01  5.3985161E+03
 4.9389610E+01  5.3764331E+03
 4.9429619E+01  5.4234419E+03
 4.9469627E+01  5.3917734E+03
 4.9509632E+01  5.3276577E+03
 4.9549641E+01  5.3350039E+03
 4.9589649E+01  5.3118086E+03
 4.9629658E+01  5.4200347E+03
 4.9669666E+01  5.4265737E+03
 4.9709671E+01  5.3906382E+03
 4.9749680E+01  5.4021084E+03
 4.9789688E+01  5.4062319E+03
 4.9829697E+01  5.4165542E+03
 4.9869705E+01  5.4078735E+03
 4.9909710E+01  5.3989780E+03
 4.9949718E+01  5.3723706E+03
 4.9989727E+01  5.3897793E+03
 5.0029736E+01  5.3951499E+03
 5.0069744E+01  5.4004766E+03
 5.0109749E+01  5.3532417E+03
 5.0149757E+01  5.3568652E+03
 5.0189766E+01  5.4053350E+03
 5.0229774E+01  5.4005015E+03
 5.0269783E+01  5.3978398E+03
 5.0309788E+01  5.3681821E+03
 5.0349796E+01  5.3717051E+03
 5.0389805E+01  5.2798867E+03
 5.0429813E+01  5.3450381E+03
 5.0469822E+01  5.3255728E+03
 5.0509827E+01  5.3631851E+03
 5.0549835E+01  5.3925835E+03
 5.0589844E+01  5.4436782E+03
 5.0629852E+01  5.3880181E+03
 5.0669861E+01  5.4100703E+03
 5.0709866E+01  5.3923081E+03
 5.0749874E+01  5.3885796E+03
 5.0789883E+01  5.3866963E+03
 5.0829891E+01  5.3859541E+03
 5.0869900E+01  5.3572026E+03
 5.0909904E+01  5.3782290E+03
 5.0949913E+01  5.3388740E+03
 5.0989922E+01  5.3251343E+03
 5.1029930E+01  5.3283643E+03
 5.1069939E+01  5.3486592E+03
 5.1109943E+01  5.3461025E+03
 5.1149952E+01  5.3576367E+03
 5.1189960E+01  5.3896646E+03
 5.1229969E+01  5.4002495E+03
 5.1269978E+01  5.3259443E+03
 5.1309986E+01  5.3763682E+03
 5.1349991E+01  5.3590762E+03
 5.1389999E+01  5.3274766E+03
 5.1430008E+01  5.2760947E+03
 5.1470016E+01  5.3020845E+03
 5.1510025E+01  5.3341284E+03
 5.1550030E+01  5.3073940E+03
 5.1590038E+01  5.3063550E+03
 5.1630047E+01  5.3581489E+03
 5.1670055E+01  5.3661987E+03
 5.1710064E+01  5.2915361E+03
 5.1750069E+01  5.3441440E+03
 5.1790077E+01  5.3195747E+03
 5.1830086E+01  5.3449590E+03
 5.1870094E+01  5.3436362E+03
 5.1910103E+01  5.2933677E+03
 5.1950108E+01  5.3002998E+03
 5.1990116E+01  5.3029072E+03
 5.2030125E+01  5.3386914E+03
 5.2070133E+01  5.3025801E+03
 5.2110142E+01  5.2779932E+03
 5.2150146E+01  5.1859648E+03
 5.2190155E+01  5.2249004E+03
 5.2230164E+01  5.2686323E+03
 5.2270172E+01  5.2774688E+03
 5.2310181E+01  5.2626606E+03
 5.2350185E+01  5.2902183E+03
 5.2390194E+01  5.2747705E+03
 5.2430202E+01  5.2944150E+03
 5.2470211E+01  5.2791919E+03
 5.2510220E+01  5.2954858E+03
 5.2550224E+01  5.2896089E+03
 5.2590233E+01  4.9841650E+03
 5.2630241E+01  5.1216738E+03
 5.2670250E+01  5.2635874E+03
 5.2710258E+01  5.2688911E+03
 5.2750263E+01  5.2902056E+03
 5.2790272E+01  5.2735986E+03
 5.2830280E+01  5.2342432E+03
 5.2870289E+01  5.2211040E+03
 5.2910297E+01  5.1842002E+03
 5.2950302E+01  5.1974893E+03
 5.2990311E+01  5.2452646E+03
 5.3030319E+01  5.1850830E+03
 5.3070328E+01  5.2599673E+03
 5.3110336E+01  5.2687480E+03
 5.3150341E+01  5.2276470E+03
 5.3190350E+01  5.3100293E+03
 5.3230358E+01  5.2616211E+03
 5.3270367E+01  5.1997754E+03
 5.3310375E+01  5.1574565E+03
 5.3350380E+01  5.2026841E+03
 5.3390388E+01  5.1307173E+03
 5.3430397E+01  5.1822563E+03
 5.3470406E+01  5.1861333E+03
 5.3510414E+01  5.2379312E+03
 5.3550419E+01  5.2270703E+03
 5.3590427E+01  5.2357524E+03
 5.3630436E+01  5.2167808E+03
 5.3670444E+01  5.1981714E+03
 5.3710453E+01  5.1664912E+03
 5.3750458E+01  5.3124688E+03
 5.3790466E+01  5.2300879E+03
 5.3830475E+01  5.1875566E+03
 5.3870483E+01  5.1077632E+03
 5.3910492E+01  5.0753560E+03
 5.3950497E+01  5.1427700E+03
 5.3990505E+01  5.2323057E+03
 5.4030514E+01  5.2009067E+03
 5.4070522E+01  5.2068394E+03
 5.4110531E+01  5.1157437E+03
 5.4150536E+01  5.0846040E+03
 5.4190544E+01  5.1520718E+03
 5.4230553E+01  5.1715122E+03
 5.4270561E+01  5.1212891E+03
 5.4310570E+01  5.1958164E+03
 5.4350574E+01  5.1248359E+03
 5.4390583E+01  5.1745200E+03
 5.4430592E+01  5.1054883E+03
 5.4470600E+01  5.1836284E+03
 5.4510609E+01  5.0783589E+03
 5.4550613E+01  5.1698643E+03
 5.4590622E+01  5.1809077E+03
 5.4630630E+01  5.1034937E+03
 5.4670639E+01  5.1023159E+03
 5.4710648E+01  5.0562466E+03
 5.4750652E+01  5.0805215E+03
 5.4790661E+01  5.0007891E+03
 5.4830669E+01  5.0013467E+03
 5.4870678E+01  5.1988643E+03
 5.4910686E+01  5.1696084E+03
 5.4950691E+01  4.9916343E+03
 5.4990700E+01  5.1347139E+03
 5.5030708E+01  5.0380171E+03
 5.5070717E+01  5.0406924E+03
 5.5110725E+01  5.1833452E+03
 5.5150730E+01  5.1771523E+03
 5.5190739E+01  5.0998032E+03
 5.5230747E+01  5.0710298E+03
 5.5270756E+01  5.0560522E+03
 5.5310764E+01  4.9538882E+03
 5.5350769E+01  5.1161709E+03
 5.5390778E+01  5.1912549E+03
 5.5430786E+01  5.0008643E+03
 5.5470795E+01  4.9791538E+03
 5.5510803E+01  4.8767622E+03
 5.5550808E+01  4.9871216E+03
 5.5590816E+01  4.9666895E+03
 5.5630825E+01  5.0269722E+03
 5.5670834E+01  5.0291938E+03
 5.5710842E+01  4.9876860E+03
 5.5750847E+01  4.9803516E+03
 5.5790855E+01  4.9213643E+03
 5.5830864E+01  4.9867061E+03
 5.5870872E+01  4.7809692E+03
 5.5910881E+01  4.9979395E+03
 5.5950886E+01  4.9997310E+03
 5.5990894E+01  4.9774956E+03
 5.6030903E+01  4.8537173E+03
 5.6070911E+01  4.7774502E+03
 5.6110920E+01  4.9797930E+03
 5.6150925E+01  4.9498188E+03
 5.6190933E+01  4.8240122E+03
 5.6230942E+01  5.0132114E+03
 5.6270950E+01  4.9106685E+03
 5.6310959E+01  4.9054072E+03
 5.6350964E+01  4.9463574E+03
 5.6390972E+01  4.8167451E+03
 5.6430981E+01  4.7722876E+03
 5.6470989E+01  4.8260322E+03
 5.6510998E+01  4.8153901E+03
 5.6551003E+01  4.8021792E+03
 5.6591011E+01  4.7159946E+03
 5.6631020E+01  5.0994312E+03
 5.6671028E+01  4.8205420E+03
 5.6711037E+01  4.6845713E+03
 5.6751041E+01  4.7077876E+03
 5.6791050E+01  4.9011509E+03
 5.6831059E+01  4.7152354E+03
 5.6871067E+01  4.7040835E+03
 5.6911076E+01  4.6370176E+03
 5.6951080E+01  4.7864067E+03
 5.6991089E+01  4.6827324E+03
 5.7031097E+01  4.6297778E+03
 5.7071106E+01  4.5618906E+03
 5.7111115E+01  4.6480356E+03
 5.7151119E+01  4.5408950E+03
 5.7191128E+01  4.5885552E+03
 5.7231136E+01  4.3679478E+03
 5.7271145E+01  4.2395542E+03
 5.7311153E+01  4.4845703E+03
 5.7351158E+01  4.4307075E+03
 5.7391167E+01  4.4151250E+03
 5.7431175E+01  4.4466431E+03
 5.7471184E+01  4.3919111E+03
 5.7511192E+01  4.3028389E+03
 5.7551197E+01  4.4575562E+03
 5.7591206E+01  4.2282642E+03
 5.7631214E+01  4.1471899E+03
 5.7671223E+01  3.7878054E+03
 5.7711231E+01  4.0763335E+03
 5.7751236E+01  4.0700991E+03
 5.7791245E+01  3.7248411E+03
 5.7831253E+01  3.7462822E+03
 5.7871262E+01  3.9634294E+03
 5.7911270E+01  4.0177117E+03
 5.7951275E+01  3.9964688E+03
 5.7991283E+01  4.1956504E+03
 5.8031292E+01  4.0757815E+03
 5.8071301E+01  3.6852876E+03
 5.8111309E+01  4.0508142E+03
 5.8151314E+01  3.9691677E+03
 5.8191322E+01  3.5201892E+03
 5.8231331E+01  3.9374089E+03
 5.8271339E+01  3.4176665E+03
 5.8311348E+01  2.7549705E+03
 5.8351353E+01  2.4173394E+03
 5.8391361E+01  1.7500095E+03
 5.8431370E+01  2.0035576E+03
 5.8471378E+01  1.7449883E+03
 5.8511387E+01  1.9761101E+03
 5.8551392E+01  1.3737487E+03
 5.8591400E+01  7.4999146E+02
