Pt_bulk-00055.tif: 2-theta Scan
2-Theta Angle (Degrees)

       1465
 2.0003892E-02  0.0000000E+00
 6.0011677E-02  0.0000000E+00
 1.0001946E-01  0.0000000E+00
 1.4002724E-01  0.0000000E+00
 1.8003502E-01  0.0000000E+00
 2.2004281E-01  0.0000000E+00
 2.6005059E-01  0.0000000E+00
 3.0005839E-01  0.0000000E+00
 3.4006616E-01  0.0000000E+00
 3.8007396E-01  0.0000000E+00
 4.2008173E-01  0.0000000E+00
 4.6008953E-01  0.0000000E+00
 5.0009733E-01  0.0000000E+00
 5.4010510E-01  0.0000000E+00
 5.8011287E-01  0.0000000E+00
 6.2012064E-01  0.0000000E+00
 6.6012847E-01  0.0000000E+00
 7.0013624E-01  0.0000000E+00
 7.4014401E-01  1.5606253E+04
 7.8015178E-01  1.7430697E+04
 8.2015961E-01  2.6170684E+04
 8.6016738E-01  4.2625559E+04
 9.0017515E-01  6.9195000E+04
 9.4018292E-01  8.6739414E+04
 9.8019075E-01  9.0710445E+04
 1.0201985E+00  8.7082023E+04
 1.0602063E+00  8.1884812E+04
 1.1002141E+00  7.8001961E+04
 1.1402218E+00  7.4065422E+04
 1.1802297E+00  7.0626547E+04
 1.2202375E+00  6.7906289E+04
 1.2602452E+00  6.5602297E+04
 1.3002530E+00  6.3809004E+04
 1.3402607E+00  6.2312312E+04
 1.3802686E+00  6.0868875E+04
 1.4202764E+00  5.9762598E+04
 1.4602841E+00  5.8913133E+04
 1.5002919E+00  5.8151184E+04
 1.5402998E+00  5.7460020E+04
 1.5803075E+00  5.6836090E+04
 1.6203153E+00  5.6253145E+04
 1.6603230E+00  5.5832547E+04
 1.7003309E+00  5.5760988E+04
 1.7403387E+00  5.6008480E+04
 1.7803464E+00  5.6280402E+04
 1.8203542E+00  5.5919973E+04
 1.8603621E+00  5.5033000E+04
 1.9003698E+00  5.4236770E+04
 1.9403776E+00  5.4022207E+04
 1.9803853E+00  5.4159793E+04
 2.0203931E+00  5.4539516E+04
 2.0604010E+00  5.4811848E+04
 2.1004088E+00  5.4909598E+04
 2.1404164E+00  5.4907590E+04
 2.1804242E+00  5.4914828E+04
 2.2204320E+00  5.5036562E+04
 2.2604399E+00  5.5252051E+04
 2.3004477E+00  5.5532738E+04
 2.3404555E+00  5.5950469E+04
 2.3804631E+00  5.6315348E+04
 2.4204710E+00  5.6778559E+04
 2.4604788E+00  5.7263270E+04
 2.5004866E+00  5.7783969E+04
 2.5404944E+00  5.8360801E+04
 2.5805020E+00  5.8674812E+04
 2.6205099E+00  5.8447703E+04
 2.6605177E+00  5.7709938E+04
 2.7005255E+00  5.6570953E+04
 2.7405334E+00  5.5331598E+04
 2.7805409E+00  5.4176133E+04
 2.8205488E+00  5.3211930E+04
 2.8605566E+00  5.2429711E+04
 2.9005644E+00  5.1677379E+04
 2.9405723E+00  5.0800699E+04
 2.9805801E+00  4.9655848E+04
 3.0205877E+00  4.8485832E+04
 3.0605955E+00  4.7526105E+04
 3.1006033E+00  4.6825016E+04
 3.1406112E+00  4.6290070E+04
 3.1806190E+00  4.5879020E+04
 3.2206266E+00  4.5528359E+04
 3.2606344E+00  4.5255281E+04
 3.3006423E+00  4.5082430E+04
 3.3406501E+00  4.5142781E+04
 3.3806579E+00  4.5386453E+04
 3.4206655E+00  4.5636051E+04
 3.4606733E+00  4.5736172E+04
 3.5006812E+00  4.5670414E+04
 3.5406890E+00  4.5609473E+04
 3.5806968E+00  4.5583223E+04
 3.6207047E+00  4.5542016E+04
 3.6607122E+00  4.5430691E+04
 3.7007201E+00  4.5267820E+04
 3.7407279E+00  4.5087566E+04
 3.7807357E+00  4.4868828E+04
 3.8207436E+00  4.4718762E+04
 3.8607512E+00  4.4567586E+04
 3.9007590E+00  4.4455277E+04
 3.9407668E+00  4.4387598E+04
 3.9807746E+00  4.4375918E+04
 4.0207825E+00  4.4465996E+04
 4.0607901E+00  4.4670227E+04
 4.1007981E+00  4.4934379E+04
 4.1408057E+00  4.5298785E+04
 4.1808133E+00  4.5779055E+04
 4.2208214E+00  4.6307020E+04
 4.2608290E+00  4.6873742E+04
 4.3008370E+00  4.7570441E+04
 4.3408446E+00  4.8448016E+04
 4.3808522E+00  4.9486652E+04
 4.4208603E+00  5.0700055E+04
 4.4608679E+00  5.2140555E+04
 4.5008759E+00  5.3799125E+04
 4.5408835E+00  5.5642945E+04
 4.5808916E+00  5.7792898E+04
 4.6208992E+00  6.0306059E+04
 4.6609068E+00  6.3177176E+04
 4.7009149E+00  6.6610578E+04
 4.7409225E+00  7.0672430E+04
 4.7809305E+00  7.5527711E+04
 4.8209381E+00  8.1526789E+04
 4.8609457E+00  8.8890820E+04
 4.9009538E+00  9.8145453E+04
 4.9409614E+00  1.1015220E+05
 4.9809694E+00  1.2564137E+05
 5.0209770E+00  1.4676095E+05
 5.0609846E+00  1.7628295E+05
 5.1009927E+00  2.1881073E+05
 5.1410003E+00  2.8827531E+05
 5.1810083E+00  4.1327428E+05
 5.2210159E+00  6.6528525E+05
 5.2610235E+00  1.2146849E+06
 5.3010316E+00  2.1812702E+06
 5.3410392E+00  3.2507835E+06
 5.3810472E+00  3.6931910E+06
 5.4210548E+00  3.5591232E+06
 5.4610624E+00  2.7475418E+06
 5.5010705E+00  1.6276942E+06
 5.5410781E+00  8.5449169E+05
 5.5810862E+00  4.8219569E+05
 5.6210938E+00  3.1689406E+05
 5.6611013E+00  2.3646481E+05
 5.7011094E+00  1.9597047E+05
 5.7411170E+00  1.7460388E+05
 5.7811251E+00  1.6423353E+05
 5.8211327E+00  1.6224214E+05
 5.8611407E+00  1.6747078E+05
 5.9011483E+00  1.8185327E+05
 5.9411559E+00  2.0849981E+05
 5.9811640E+00  2.5489716E+05
 6.0211716E+00  3.3981462E+05
 6.0611796E+00  4.9797391E+05
 6.1011872E+00  7.9339731E+05
 6.1411948E+00  1.2502262E+06
 6.1812029E+00  1.7245715E+06
 6.2212105E+00  1.9461332E+06
 6.2612185E+00  1.7370622E+06
 6.3012261E+00  1.2437510E+06
 6.3412337E+00  7.5333762E+05
 6.3812418E+00  4.3627291E+05
 6.4212494E+00  2.6348578E+05
 6.4612575E+00  1.7658042E+05
 6.5012650E+00  1.3048055E+05
 6.5412726E+00  1.0384136E+05
 6.5812807E+00  8.7648367E+04
 6.6212883E+00  7.6847961E+04
 6.6612964E+00  6.9175758E+04
 6.7013040E+00  6.3713227E+04
 6.7413116E+00  5.9542934E+04
 6.7813196E+00  5.6321480E+04
 6.8213272E+00  5.3859184E+04
 6.8613353E+00  5.1854230E+04
 6.9013429E+00  5.0142340E+04
 6.9413505E+00  4.8523613E+04
 6.9813585E+00  4.6848652E+04
 7.0213661E+00  4.5415109E+04
 7.0613742E+00  4.4319879E+04
 7.1013818E+00  4.3383512E+04
 7.1413898E+00  4.2624117E+04
 7.1813974E+00  4.1974090E+04
 7.2214050E+00  4.1415883E+04
 7.2614131E+00  4.0970215E+04
 7.3014207E+00  4.0635949E+04
 7.3414288E+00  4.0382418E+04
 7.3814363E+00  4.0221434E+04
 7.4214439E+00  4.0137996E+04
 7.4614520E+00  4.0116977E+04
 7.5014596E+00  4.0081395E+04
 7.5414677E+00  4.0051992E+04
 7.5814753E+00  4.0117055E+04
 7.6214828E+00  4.0291039E+04
 7.6614909E+00  4.0526613E+04
 7.7014985E+00  4.0848402E+04
 7.7415066E+00  4.1287758E+04
 7.7815142E+00  4.1779793E+04
 7.8215218E+00  4.2357918E+04
 7.8615298E+00  4.3047938E+04
 7.9015374E+00  4.3851512E+04
 7.9415455E+00  4.4765391E+04
 7.9815531E+00  4.5817418E+04
 8.0215607E+00  4.7048551E+04
 8.0615683E+00  4.8467789E+04
 8.1015768E+00  5.0113309E+04
 8.1415844E+00  5.1998031E+04
 8.1815920E+00  5.4257762E+04
 8.2215996E+00  5.6978059E+04
 8.2616072E+00  6.0259590E+04
 8.3016157E+00  6.4392535E+04
 8.3416233E+00  6.9623219E+04
 8.3816309E+00  7.6322641E+04
 8.4216385E+00  8.5195164E+04
 8.4616461E+00  9.7243297E+04
 8.5016546E+00  1.1451709E+05
 8.5416622E+00  1.4104805E+05
 8.5816698E+00  1.8449973E+05
 8.6216774E+00  2.6257003E+05
 8.6616850E+00  4.0881950E+05
 8.7016935E+00  6.5916475E+05
 8.7417011E+00  1.0072726E+06
 8.7817087E+00  1.3069618E+06
 8.8217163E+00  1.3794639E+06
 8.8617239E+00  1.1637509E+06
 8.9017324E+00  8.1514994E+05
 8.9417400E+00  5.0580700E+05
 8.9817476E+00  3.0998925E+05
 9.0217552E+00  2.0385831E+05
 9.0617638E+00  1.4748083E+05
 9.1017714E+00  1.1699748E+05
 9.1417789E+00  9.9403844E+04
 9.1817865E+00  8.8412008E+04
 9.2217941E+00  8.1419242E+04
 9.2618027E+00  7.6789172E+04
 9.3018103E+00  7.3612828E+04
 9.3418179E+00  7.1528164E+04
 9.3818254E+00  7.0227109E+04
 9.4218330E+00  6.9529039E+04
 9.4618416E+00  6.9326844E+04
 9.5018492E+00  6.9547453E+04
 9.5418568E+00  7.0224742E+04
 9.5818644E+00  7.1361414E+04
 9.6218719E+00  7.3033695E+04
 9.6618805E+00  7.5328797E+04
 9.7018881E+00  7.8359234E+04
 9.7418957E+00  8.2273305E+04
 9.7819033E+00  8.6978492E+04
 9.8219109E+00  9.2596398E+04
 9.8619194E+00  9.9582430E+04
 9.9019270E+00  1.0853044E+05
 9.9419346E+00  1.2088025E+05
 9.9819422E+00  1.3816900E+05
 1.0021950E+01  1.6273595E+05
 1.0061958E+01  1.9982767E+05
 1.0101966E+01  2.5947148E+05
 1.0141973E+01  3.6045075E+05
 1.0181981E+01  5.3741075E+05
 1.0221989E+01  8.2504381E+05
 1.0261997E+01  1.1945240E+06
 1.0302005E+01  1.5103304E+06
 1.0342012E+01  1.5796700E+06
 1.0382020E+01  1.3623798E+06
 1.0422028E+01  9.9039600E+05
 1.0462036E+01  6.5455512E+05
 1.0502044E+01  4.2972050E+05
 1.0542051E+01  3.0658853E+05
 1.0582059E+01  2.5161128E+05
 1.0622066E+01  2.4426086E+05
 1.0662075E+01  2.8325519E+05
 1.0702083E+01  3.6788097E+05
 1.0742090E+01  4.7374806E+05
 1.0782098E+01  5.3733619E+05
 1.0822105E+01  5.0987412E+05
 1.0862114E+01  4.0320144E+05
 1.0902122E+01  2.8086275E+05
 1.0942129E+01  1.8864445E+05
 1.0982137E+01  1.3316458E+05
 1.1022144E+01  1.0283033E+05
 1.1062153E+01  8.5676250E+04
 1.1102160E+01  7.5212000E+04
 1.1142168E+01  6.8393531E+04
 1.1182176E+01  6.3587434E+04
 1.1222183E+01  6.0027363E+04
 1.1262192E+01  5.7306449E+04
 1.1302199E+01  5.5153605E+04
 1.1342207E+01  5.3463547E+04
 1.1382215E+01  5.2149176E+04
 1.1422222E+01  5.1156781E+04
 1.1462231E+01  5.0302219E+04
 1.1502238E+01  4.9461957E+04
 1.1542246E+01  4.8528984E+04
 1.1582253E+01  4.7625207E+04
 1.1622262E+01  4.6963762E+04
 1.1662270E+01  4.6498289E+04
 1.1702277E+01  4.6204930E+04
 1.1742285E+01  4.6037176E+04
 1.1782292E+01  4.5973402E+04
 1.1822301E+01  4.6069469E+04
 1.1862309E+01  4.6364230E+04
 1.1902316E+01  4.6884957E+04
 1.1942324E+01  4.7801840E+04
 1.1982331E+01  4.9197355E+04
 1.2022340E+01  5.1375770E+04
 1.2062347E+01  5.2796320E+04
 1.2102355E+01  5.4699074E+04
 1.2142363E+01  5.7691059E+04
 1.2182370E+01  6.2604719E+04
 1.2222379E+01  7.0092711E+04
 1.2262386E+01  8.1845406E+04
 1.2302394E+01  1.0027777E+05
 1.2342402E+01  1.2812998E+05
 1.2382409E+01  1.6396709E+05
 1.2422418E+01  1.9769280E+05
 1.2462425E+01  2.1349270E+05
 1.2502433E+01  2.0183630E+05
 1.2542440E+01  1.7003334E+05
 1.2582448E+01  1.3349856E+05
 1.2622457E+01  1.0423330E+05
 1.2662464E+01  8.4865344E+04
 1.2702472E+01  7.3130766E+04
 1.2742479E+01  6.6396453E+04
 1.2782487E+01  6.2668832E+04
 1.2822495E+01  6.0763371E+04
 1.2862503E+01  6.0087891E+04
 1.2902511E+01  6.0265551E+04
 1.2942518E+01  6.1081812E+04
 1.2982526E+01  6.2504891E+04
 1.3022534E+01  6.4500758E+04
 1.3062542E+01  6.7090555E+04
 1.3102550E+01  7.0492008E+04
 1.3142557E+01  7.4855672E+04
 1.3182565E+01  8.0466148E+04
 1.3222573E+01  8.7803133E+04
 1.3262581E+01  9.7657562E+04
 1.3302588E+01  1.1145949E+05
 1.3342596E+01  1.3163233E+05
 1.3382604E+01  1.6305055E+05
 1.3422612E+01  2.1422656E+05
 1.3462620E+01  2.9644722E+05
 1.3502627E+01  4.1361862E+05
 1.3542635E+01  5.4113269E+05
 1.3582643E+01  6.2345250E+05
 1.3622651E+01  6.1767094E+05
 1.3662659E+01  5.3451181E+05
 1.3702666E+01  4.3073222E+05
 1.3742674E+01  3.5670716E+05
 1.3782681E+01  3.3518772E+05
 1.3822690E+01  3.6786581E+05
 1.3862698E+01  4.4198575E+05
 1.3902705E+01  5.2186625E+05
 1.3942713E+01  5.5731788E+05
 1.3982720E+01  5.1929056E+05
 1.4022729E+01  4.2465522E+05
 1.4062737E+01  3.1778147E+05
 1.4102744E+01  2.3020316E+05
 1.4142752E+01  1.7066855E+05
 1.4182760E+01  1.3310619E+05
 1.4222768E+01  1.0973186E+05
 1.4262775E+01  9.4998234E+04
 1.4302783E+01  8.5306297E+04
 1.4342791E+01  7.8618469E+04
 1.4382799E+01  7.3943539E+04
 1.4422807E+01  7.0588555E+04
 1.4462814E+01  6.8124570E+04
 1.4502822E+01  6.6345555E+04
 1.4542830E+01  6.5101574E+04
 1.4582838E+01  6.4285871E+04
 1.4622846E+01  6.3865605E+04
 1.4662853E+01  6.3867805E+04
 1.4702861E+01  6.4272691E+04
 1.4742868E+01  6.5091371E+04
 1.4782877E+01  6.6422023E+04
 1.4822885E+01  6.8349680E+04
 1.4862892E+01  7.1072484E+04
 1.4902900E+01  7.4860672E+04
 1.4942907E+01  8.0166555E+04
 1.4982916E+01  8.7741688E+04
 1.5022923E+01  9.8945977E+04
 1.5062931E+01  1.1610791E+05
 1.5102939E+01  1.4327955E+05
 1.5142946E+01  1.8568462E+05
 1.5182955E+01  2.4632162E+05
 1.5222962E+01  3.1551556E+05
 1.5262970E+01  3.6726022E+05
 1.5302978E+01  3.7401472E+05
 1.5342985E+01  3.3178134E+05
 1.5382994E+01  2.6423541E+05
 1.5423001E+01  1.9935197E+05
 1.5463009E+01  1.5113722E+05
 1.5503016E+01  1.1976947E+05
 1.5543024E+01  1.0031236E+05
 1.5583033E+01  8.8468531E+04
 1.5623040E+01  8.1409039E+04
 1.5663048E+01  7.7386695E+04
 1.5703055E+01  7.5505523E+04
 1.5743063E+01  7.5284164E+04
 1.5783072E+01  7.6483883E+04
 1.5823079E+01  7.9217406E+04
 1.5863087E+01  8.3770203E+04
 1.5903094E+01  9.0752602E+04
 1.5943102E+01  1.0122481E+05
 1.5983110E+01  1.1710588E+05
 1.6023117E+01  1.4163280E+05
 1.6063126E+01  1.7925852E+05
 1.6103134E+01  2.3271569E+05
 1.6143141E+01  2.9632188E+05
 1.6183149E+01  3.4994956E+05
 1.6223156E+01  3.6771662E+05
 1.6263165E+01  3.3950938E+05
 1.6303173E+01  2.7996450E+05
 1.6343180E+01  2.1493369E+05
 1.6383188E+01  1.6180286E+05
 1.6423195E+01  1.2440050E+05
 1.6463203E+01  9.9838477E+04
 1.6503212E+01  8.3925594E+04
 1.6543219E+01  7.3449602E+04
 1.6583227E+01  6.6389875E+04
 1.6623234E+01  6.1478281E+04
 1.6663242E+01  5.7938598E+04
 1.6703251E+01  5.5356645E+04
 1.6743258E+01  5.3446043E+04
 1.6783266E+01  5.1967770E+04
 1.6823273E+01  5.0863418E+04
 1.6863281E+01  5.0082543E+04
 1.6903290E+01  4.9515043E+04
 1.6943296E+01  4.9141832E+04
 1.6983305E+01  4.8930719E+04
 1.7023312E+01  4.8855516E+04
 1.7063320E+01  4.8876578E+04
 1.7103329E+01  4.9036367E+04
 1.7143335E+01  4.9422145E+04
 1.7183344E+01  5.0032328E+04
 1.7223351E+01  5.0912504E+04
 1.7263359E+01  5.2120734E+04
 1.7303368E+01  5.3686703E+04
 1.7343374E+01  5.5799164E+04
 1.7383383E+01  5.8737965E+04
 1.7423389E+01  6.2843848E+04
 1.7463398E+01  6.8872820E+04
 1.7503407E+01  7.7967125E+04
 1.7543413E+01  9.1216852E+04
 1.7583422E+01  1.0809921E+05
 1.7623428E+01  1.2473698E+05
 1.7663437E+01  1.3460347E+05
 1.7703445E+01  1.3321797E+05
 1.7743452E+01  1.2196058E+05
 1.7783461E+01  1.0673301E+05
 1.7823467E+01  9.3080875E+04
 1.7863476E+01  8.3377625E+04
 1.7903484E+01  7.7602602E+04
 1.7943491E+01  7.4887508E+04
 1.7983500E+01  7.4398898E+04
 1.8023508E+01  7.5626789E+04
 1.8063515E+01  7.8363852E+04
 1.8103523E+01  8.2505945E+04
 1.8143530E+01  8.8498812E+04
 1.8183538E+01  9.6995398E+04
 1.8223547E+01  1.0916606E+05
 1.8263554E+01  1.2698208E+05
 1.8303562E+01  1.5345808E+05
 1.8343569E+01  1.9207681E+05
 1.8383577E+01  2.4340586E+05
 1.8423586E+01  2.9947216E+05
 1.8463593E+01  3.4223166E+05
 1.8503601E+01  3.5500394E+05
 1.8543608E+01  3.3676806E+05
 1.8583616E+01  3.0425294E+05
 1.8623625E+01  2.7783147E+05
 1.8663631E+01  2.6718812E+05
 1.8703640E+01  2.6689612E+05
 1.8743647E+01  2.6295556E+05
 1.8783655E+01  2.4441789E+05
 1.8823664E+01  2.1199936E+05
 1.8863670E+01  1.7492598E+05
 1.8903679E+01  1.4222358E+05
 1.8943686E+01  1.1750396E+05
 1.8983694E+01  1.0023565E+05
 1.9023703E+01  8.8438523E+04
 1.9063709E+01  8.0418531E+04
 1.9103718E+01  7.4906125E+04
 1.9143724E+01  7.1029305E+04
 1.9183733E+01  6.8268727E+04
 1.9223742E+01  6.6346945E+04
 1.9263748E+01  6.5102664E+04
 1.9303757E+01  6.4475859E+04
 1.9343763E+01  6.4440223E+04
 1.9383772E+01  6.5014867E+04
 1.9423780E+01  6.6318664E+04
 1.9463787E+01  6.8556961E+04
 1.9503796E+01  7.2060430E+04
 1.9543802E+01  7.7375922E+04
 1.9583811E+01  8.5231484E+04
 1.9623819E+01  9.6330172E+04
 1.9663826E+01  1.1050348E+05
 1.9703835E+01  1.2551492E+05
 1.9743841E+01  1.3674017E+05
 1.9783850E+01  1.3942819E+05
 1.9823858E+01  1.3232378E+05
 1.9863865E+01  1.1854621E+05
 1.9903873E+01  1.0327056E+05
 1.9943880E+01  9.0107891E+04
 1.9983889E+01  8.0283688E+04
 2.0023897E+01  7.3611609E+04
 2.0063904E+01  6.9485367E+04
 2.0103912E+01  6.7248789E+04
 2.0143919E+01  6.6590070E+04
 2.0183928E+01  6.7243070E+04
 2.0223936E+01  6.9264734E+04
 2.0263943E+01  7.2979398E+04
 2.0303951E+01  7.8971375E+04
 2.0343958E+01  8.8155648E+04
 2.0383966E+01  1.0139241E+05
 2.0423975E+01  1.1831520E+05
 2.0463982E+01  1.3541919E+05
 2.0503990E+01  1.4747441E+05
 2.0543997E+01  1.5103208E+05
 2.0584005E+01  1.4781141E+05
 2.0624014E+01  1.4320452E+05
 2.0664021E+01  1.4113289E+05
 2.0704029E+01  1.4088141E+05
 2.0744036E+01  1.3833723E+05
 2.0784044E+01  1.3022239E+05
 2.0824053E+01  1.1686585E+05
 2.0864059E+01  1.0158589E+05
 2.0904068E+01  8.7639109E+04
 2.0944075E+01  7.6536266E+04
 2.0984083E+01  6.8372141E+04
 2.1024092E+01  6.2581367E+04
 2.1064098E+01  5.8491320E+04
 2.1104107E+01  5.5624824E+04
 2.1144114E+01  5.3605961E+04
 2.1184122E+01  5.2169043E+04
 2.1224131E+01  5.1180180E+04
 2.1264137E+01  5.0581926E+04
 2.1304146E+01  5.0282051E+04
 2.1344152E+01  5.0240719E+04
 2.1384161E+01  5.0516945E+04
 2.1424170E+01  5.1339105E+04
 2.1464176E+01  5.2551164E+04
 2.1504185E+01  5.4514211E+04
 2.1544191E+01  5.7497887E+04
 2.1584200E+01  6.1431414E+04
 2.1624208E+01  6.5746102E+04
 2.1664215E+01  6.9052898E+04
 2.1704224E+01  7.0049258E+04
 2.1744230E+01  6.8580742E+04
 2.1784239E+01  6.5703414E+04
 2.1824247E+01  6.2843992E+04
 2.1864254E+01  6.0943793E+04
 2.1904263E+01  6.0244316E+04
 2.1944269E+01  6.0685844E+04
 2.1984278E+01  6.2239754E+04
 2.2024286E+01  6.4828574E+04
 2.2064293E+01  6.8647266E+04
 2.2104301E+01  7.4073500E+04
 2.2144308E+01  8.1755625E+04
 2.2184317E+01  9.2447430E+04
 2.2224325E+01  1.0677158E+05
 2.2264332E+01  1.2422423E+05
 2.2304340E+01  1.4187777E+05
 2.2344347E+01  1.5487469E+05
 2.2384356E+01  1.5944673E+05
 2.2424364E+01  1.5587364E+05
 2.2464371E+01  1.4820750E+05
 2.2504379E+01  1.4053733E+05
 2.2544386E+01  1.3390086E+05
 2.2584394E+01  1.2668601E+05
 2.2624403E+01  1.1728340E+05
 2.2664410E+01  1.0595112E+05
 2.2704418E+01  9.4446273E+04
 2.2744425E+01  8.4457367E+04
 2.2784433E+01  7.6723406E+04
 2.2824442E+01  7.1090648E+04
 2.2864449E+01  6.7169727E+04
 2.2904457E+01  6.4600195E+04
 2.2944464E+01  6.3082039E+04
 2.2984472E+01  6.2384590E+04
 2.3024481E+01  6.2414703E+04
 2.3064487E+01  6.3167137E+04
 2.3104496E+01  6.4619523E+04
 2.3144505E+01  6.6924375E+04
 2.3184511E+01  7.0372555E+04
 2.3224520E+01  7.5435586E+04
 2.3264526E+01  8.2792836E+04
 2.3304535E+01  9.3083258E+04
 2.3344543E+01  1.0610700E+05
 2.3384550E+01  1.1963595E+05
 2.3424559E+01  1.2971463E+05
 2.3464565E+01  1.3239197E+05
 2.3504574E+01  1.2683371E+05
 2.3544582E+01  1.1591526E+05
 2.3584589E+01  1.0376036E+05
 2.3624598E+01  9.3355945E+04
 2.3664604E+01  8.5890055E+04
 2.3704613E+01  8.1338031E+04
 2.3744621E+01  7.9357531E+04
 2.3784628E+01  7.9754430E+04
 2.3824636E+01  8.2551500E+04
 2.3864643E+01  8.8077328E+04
 2.3904652E+01  9.6846086E+04
 2.3944660E+01  1.0914621E+05
 2.3984667E+01  1.2403389E+05
 2.4024675E+01  1.3813780E+05
 2.4064682E+01  1.4645691E+05
 2.4104691E+01  1.4530566E+05
 2.4144699E+01  1.3495764E+05
 2.4184706E+01  1.1932533E+05
 2.4224714E+01  1.0299606E+05
 2.4264721E+01  8.8848188E+04
 2.4304729E+01  7.7819258E+04
 2.4344738E+01  6.9576258E+04
 2.4384745E+01  6.3454164E+04
 2.4424753E+01  5.8914426E+04
 2.4464760E+01  5.5548523E+04
 2.4504768E+01  5.3014391E+04
 2.4544777E+01  5.1074172E+04
 2.4584784E+01  4.9550512E+04
 2.4624792E+01  4.8369656E+04
 2.4664799E+01  4.7449883E+04
 2.4704807E+01  4.6770008E+04
 2.4744816E+01  4.6287098E+04
 2.4784822E+01  4.6009320E+04
 2.4824831E+01  4.5914887E+04
 2.4864838E+01  4.6011949E+04
 2.4904846E+01  4.6332609E+04
 2.4944855E+01  4.6859078E+04
 2.4984861E+01  4.7527434E+04
 2.5024870E+01  4.8248637E+04
 2.5064877E+01  4.8837863E+04
 2.5104885E+01  4.9083754E+04
 2.5144894E+01  4.8984277E+04
 2.5184900E+01  4.8680500E+04
 2.5224909E+01  4.8392461E+04
 2.5264915E+01  4.8313953E+04
 2.5304924E+01  4.8580891E+04
 2.5344933E+01  4.9223980E+04
 2.5384939E+01  5.0352887E+04
 2.5424948E+01  5.2012816E+04
 2.5464954E+01  5.4354777E+04
 2.5504963E+01  5.7562254E+04
 2.5544971E+01  6.1861219E+04
 2.5584978E+01  6.7162727E+04
 2.5624987E+01  7.3002961E+04
 2.5664993E+01  7.8666086E+04
 2.5705002E+01  8.3568562E+04
 2.5745010E+01  8.7622789E+04
 2.5785017E+01  9.1169250E+04
 2.5825026E+01  9.3930391E+04
 2.5865032E+01  9.4719633E+04
 2.5905041E+01  9.2388203E+04
 2.5945049E+01  8.6901516E+04
 2.5985056E+01  7.9610195E+04
 2.6025064E+01  7.2304367E+04
 2.6065071E+01  6.6001961E+04
 2.6105080E+01  6.1053961E+04
 2.6145088E+01  5.7467648E+04
 2.6185095E+01  5.4980898E+04
 2.6225103E+01  5.3358812E+04
 2.6265110E+01  5.2433160E+04
 2.6305119E+01  5.2130320E+04
 2.6345127E+01  5.2425715E+04
 2.6385134E+01  5.3303207E+04
 2.6425142E+01  5.4868324E+04
 2.6465149E+01  5.7251312E+04
 2.6505157E+01  6.0467289E+04
 2.6545166E+01  6.4241969E+04
 2.6585173E+01  6.7956391E+04
 2.6625181E+01  7.0584492E+04
 2.6665188E+01  7.1239078E+04
 2.6705196E+01  6.9855289E+04
 2.6745205E+01  6.7169664E+04
 2.6785212E+01  6.4180938E+04
 2.6825220E+01  6.1683617E+04
 2.6865227E+01  6.0078445E+04
 2.6905235E+01  5.9501887E+04
 2.6945244E+01  6.0024703E+04
 2.6985250E+01  6.1764762E+04
 2.7025259E+01  6.4872434E+04
 2.7065266E+01  6.9498773E+04
 2.7105274E+01  7.5392828E+04
 2.7145283E+01  8.1594445E+04
 2.7185289E+01  8.6599195E+04
 2.7225298E+01  8.9074117E+04
 2.7265305E+01  8.8684562E+04
 2.7305313E+01  8.6249016E+04
 2.7345322E+01  8.2780938E+04
 2.7385328E+01  7.8757391E+04
 2.7425337E+01  7.4257602E+04
 2.7465343E+01  6.9419227E+04
 2.7505352E+01  6.4630871E+04
 2.7545361E+01  6.0347559E+04
 2.7585367E+01  5.6866027E+04
 2.7625376E+01  5.4219492E+04
 2.7665382E+01  5.2311164E+04
 2.7705391E+01  5.0979426E+04
 2.7745399E+01  5.0071820E+04
 2.7785406E+01  4.9596516E+04
 2.7825415E+01  4.9537305E+04
 2.7865421E+01  4.9863312E+04
 2.7905430E+01  5.0552832E+04
 2.7945438E+01  5.1687723E+04
 2.7985445E+01  5.3272043E+04
 2.8025454E+01  5.5119145E+04
 2.8065460E+01  5.6883223E+04
 2.8105469E+01  5.8149188E+04
 2.8145477E+01  5.8566359E+04
 2.8185484E+01  5.8190633E+04
 2.8225492E+01  5.7373066E+04
 2.8265501E+01  5.6649773E+04
 2.8305508E+01  5.6379531E+04
 2.8345516E+01  5.6782133E+04
 2.8385523E+01  5.7972086E+04
 2.8425531E+01  6.0139777E+04
 2.8465540E+01  6.3427559E+04
 2.8505547E+01  6.7907023E+04
 2.8545555E+01  7.3427633E+04
 2.8585562E+01  7.9353914E+04
 2.8625570E+01  8.4475664E+04
 2.8665579E+01  8.7660148E+04
 2.8705585E+01  8.8523070E+04
 2.8745594E+01  8.7457648E+04
 2.8785601E+01  8.5062031E+04
 2.8825609E+01  8.1576031E+04
 2.8865618E+01  7.7045008E+04
 2.8905624E+01  7.1796508E+04
 2.8945633E+01  6.6392742E+04
 2.8985640E+01  6.1400883E+04
 2.9025648E+01  5.7202535E+04
 2.9065657E+01  5.3883141E+04
 2.9105663E+01  5.1339191E+04
 2.9145672E+01  4.9435539E+04
 2.9185678E+01  4.8057664E+04
 2.9225687E+01  4.7126863E+04
 2.9265696E+01  4.6597199E+04
 2.9305702E+01  4.6480969E+04
 2.9345711E+01  4.6792391E+04
 2.9385717E+01  4.7554953E+04
 2.9425726E+01  4.8668453E+04
 2.9465734E+01  4.9856223E+04
 2.9505741E+01  5.0701566E+04
 2.9545750E+01  5.0804820E+04
 2.9585756E+01  5.0153121E+04
 2.9625765E+01  4.8993875E+04
 2.9665773E+01  4.7767812E+04
 2.9705780E+01  4.6757090E+04
 2.9745789E+01  4.6184250E+04
 2.9785795E+01  4.6133789E+04
 2.9825804E+01  4.6594734E+04
 2.9865812E+01  4.7546578E+04
 2.9905819E+01  4.8922480E+04
 2.9945827E+01  5.0482070E+04
 2.9985834E+01  5.1797348E+04
 3.0025843E+01  5.2374215E+04
 3.0065851E+01  5.1928219E+04
 3.0105858E+01  5.0564215E+04
 3.0145866E+01  4.8616406E+04
 3.0185873E+01  4.6528258E+04
 3.0225882E+01  4.4611656E+04
 3.0265890E+01  4.3015891E+04
 3.0305897E+01  4.1762430E+04
 3.0345905E+01  4.0804723E+04
 3.0385912E+01  4.0103934E+04
 3.0425920E+01  3.9634996E+04
 3.0465929E+01  3.9351680E+04
 3.0505936E+01  3.9272672E+04
 3.0545944E+01  3.9343113E+04
 3.0585951E+01  3.9538496E+04
 3.0625959E+01  3.9942008E+04
 3.0665968E+01  4.0587266E+04
 3.0705975E+01  4.1452293E+04
 3.0745983E+01  4.2554754E+04
 3.0785990E+01  4.3797320E+04
 3.0825998E+01  4.4970637E+04
 3.0866007E+01  4.5832914E+04
 3.0906013E+01  4.6243316E+04
 3.0946022E+01  4.6256215E+04
 3.0986029E+01  4.6088125E+04
 3.1026037E+01  4.6034371E+04
 3.1066046E+01  4.6259754E+04
 3.1106052E+01  4.6942801E+04
 3.1146061E+01  4.8168340E+04
 3.1186068E+01  5.0037598E+04
 3.1226076E+01  5.2560777E+04
 3.1266085E+01  5.5576156E+04
 3.1306091E+01  5.8612945E+04
 3.1346100E+01  6.1046273E+04
 3.1386106E+01  6.2278602E+04
 3.1426115E+01  6.2165262E+04
 3.1466124E+01  6.0995586E+04
 3.1506130E+01  5.9194293E+04
 3.1546139E+01  5.6994305E+04
 3.1586145E+01  5.4631254E+04
 3.1626154E+01  5.2354676E+04
 3.1666162E+01  5.0297645E+04
 3.1706169E+01  4.8615871E+04
 3.1746178E+01  4.7373379E+04
 3.1786184E+01  4.6548668E+04
 3.1826193E+01  4.6130422E+04
 3.1866201E+01  4.6106652E+04
 3.1906208E+01  4.6470262E+04
 3.1946217E+01  4.7227867E+04
 3.1986223E+01  4.8437902E+04
 3.2026234E+01  5.0097855E+04
 3.2066238E+01  5.2078828E+04
 3.2106247E+01  5.4029680E+04
 3.2146255E+01  5.5468934E+04
 3.2186264E+01  5.5958332E+04
 3.2226273E+01  5.5466730E+04
 3.2266277E+01  5.4251188E+04
 3.2306286E+01  5.2814797E+04
 3.2346294E+01  5.1595242E+04
 3.2386303E+01  5.0816500E+04
 3.2426311E+01  5.0609117E+04
 3.2466316E+01  5.1028543E+04
 3.2506325E+01  5.2070258E+04
 3.2546333E+01  5.3575680E+04
 3.2586342E+01  5.5172039E+04
 3.2626350E+01  5.6383789E+04
 3.2666355E+01  5.6841539E+04
 3.2706364E+01  5.6404270E+04
 3.2746372E+01  5.5161188E+04
 3.2786381E+01  5.3387164E+04
 3.2826389E+01  5.1312039E+04
 3.2866394E+01  4.9097180E+04
 3.2906403E+01  4.6956777E+04
 3.2946411E+01  4.5009953E+04
 3.2986420E+01  4.3308957E+04
 3.3026428E+01  4.1864031E+04
 3.3066433E+01  4.0701016E+04
 3.3106441E+01  3.9789973E+04
 3.3146450E+01  3.9052984E+04
 3.3186459E+01  3.8464469E+04
 3.3226467E+01  3.8034891E+04
 3.3266472E+01  3.7713824E+04
 3.3306480E+01  3.7476539E+04
 3.3346489E+01  3.7348742E+04
 3.3386497E+01  3.7315613E+04
 3.3426506E+01  3.7388309E+04
 3.3466511E+01  3.7546277E+04
 3.3506519E+01  3.7790238E+04
 3.3546528E+01  3.8129754E+04
 3.3586536E+01  3.8627637E+04
 3.3626545E+01  3.9325625E+04
 3.3666550E+01  4.0229910E+04
 3.3706558E+01  4.1384660E+04
 3.3746567E+01  4.2812250E+04
 3.3786575E+01  4.4490508E+04
 3.3826584E+01  4.6250691E+04
 3.3866589E+01  4.7916508E+04
 3.3906597E+01  4.9342523E+04
 3.3946606E+01  5.0347230E+04
 3.3986614E+01  5.0823801E+04
 3.4026623E+01  5.0607168E+04
 3.4066628E+01  4.9670863E+04
 3.4106636E+01  4.8165137E+04
 3.4146645E+01  4.6301648E+04
 3.4186653E+01  4.4482184E+04
 3.4226662E+01  4.2871746E+04
 3.4266666E+01  4.1559938E+04
 3.4306675E+01  4.0575602E+04
 3.4346684E+01  3.9901680E+04
 3.4386692E+01  3.9509301E+04
 3.4426701E+01  3.9387938E+04
 3.4466705E+01  3.9477738E+04
 3.4506714E+01  3.9787566E+04
 3.4546722E+01  4.0174805E+04
 3.4586731E+01  4.0518297E+04
 3.4626740E+01  4.0654152E+04
 3.4666744E+01  4.0502898E+04
 3.4706753E+01  4.0067023E+04
 3.4746761E+01  3.9487242E+04
 3.4786770E+01  3.8913758E+04
 3.4826778E+01  3.8466969E+04
 3.4866783E+01  3.8208543E+04
 3.4906792E+01  3.8137918E+04
 3.4946800E+01  3.8293355E+04
 3.4986809E+01  3.8582215E+04
 3.5026817E+01  3.8849691E+04
 3.5066822E+01  3.8937613E+04
 3.5106831E+01  3.8729266E+04
 3.5146839E+01  3.8204926E+04
 3.5186848E+01  3.7508973E+04
 3.5226856E+01  3.6735887E+04
 3.5266861E+01  3.6012469E+04
 3.5306870E+01  3.5376598E+04
 3.5346878E+01  3.4892598E+04
 3.5386887E+01  3.4521824E+04
 3.5426895E+01  3.4272289E+04
 3.5466900E+01  3.4102023E+04
 3.5506908E+01  3.4003020E+04
 3.5546917E+01  3.4034215E+04
 3.5586926E+01  3.4126434E+04
 3.5626934E+01  3.4300039E+04
 3.5666939E+01  3.4588098E+04
 3.5706947E+01  3.4943094E+04
 3.5746956E+01  3.5325906E+04
 3.5786964E+01  3.5753070E+04
 3.5826973E+01  3.6206750E+04
 3.5866978E+01  3.6697855E+04
 3.5906986E+01  3.7216520E+04
 3.5946995E+01  3.7819297E+04
 3.5987003E+01  3.8570832E+04
 3.6027012E+01  3.9551645E+04
 3.6067017E+01  4.0809773E+04
 3.6107025E+01  4.2294070E+04
 3.6147034E+01  4.3929539E+04
 3.6187042E+01  4.5547496E+04
 3.6227051E+01  4.6819379E+04
 3.6267056E+01  4.7561965E+04
 3.6307064E+01  4.7619957E+04
 3.6347073E+01  4.7131508E+04
 3.6387081E+01  4.6183688E+04
 3.6427090E+01  4.4960777E+04
 3.6467094E+01  4.3598668E+04
 3.6507103E+01  4.2237781E+04
 3.6547112E+01  4.1009684E+04
 3.6587120E+01  3.9951617E+04
 3.6627129E+01  3.9158828E+04
 3.6667133E+01  3.8623352E+04
 3.6707142E+01  3.8265977E+04
 3.6747150E+01  3.8096512E+04
 3.6787159E+01  3.8138996E+04
 3.6827168E+01  3.8344691E+04
 3.6867172E+01  3.8648512E+04
 3.6907181E+01  3.8979543E+04
 3.6947189E+01  3.9217172E+04
 3.6987198E+01  3.9264746E+04
 3.7027206E+01  3.9153641E+04
 3.7067211E+01  3.8930496E+04
 3.7107220E+01  3.8741160E+04
 3.7147228E+01  3.8675648E+04
 3.7187237E+01  3.8795027E+04
 3.7227245E+01  3.9129098E+04
 3.7267250E+01  3.9619719E+04
 3.7307259E+01  4.0229121E+04
 3.7347267E+01  4.0802285E+04
 3.7387276E+01  4.1190824E+04
 3.7427284E+01  4.1306781E+04
 3.7467289E+01  4.1098086E+04
 3.7507298E+01  4.0621816E+04
 3.7547306E+01  3.9869086E+04
 3.7587315E+01  3.8994035E+04
 3.7627323E+01  3.8063359E+04
 3.7667328E+01  3.7195391E+04
 3.7707336E+01  3.6437969E+04
 3.7747345E+01  3.5775887E+04
 3.7787354E+01  3.5265297E+04
 3.7827362E+01  3.4888457E+04
 3.7867367E+01  3.4646906E+04
 3.7907375E+01  3.4522562E+04
 3.7947384E+01  3.4485965E+04
 3.7987392E+01  3.4531684E+04
 3.8027401E+01  3.4502715E+04
 3.8067406E+01  3.4623770E+04
 3.8107414E+01  3.4621074E+04
 3.8147423E+01  3.4489410E+04
 3.8187431E+01  3.4358012E+04
 3.8227440E+01  3.4277172E+04
 3.8267445E+01  3.4314574E+04
 3.8307453E+01  3.4365762E+04
 3.8347462E+01  3.4550508E+04
 3.8387470E+01  3.4835211E+04
 3.8427479E+01  3.5098367E+04
 3.8467484E+01  3.5262266E+04
 3.8507492E+01  3.5291125E+04
 3.8547501E+01  3.5186379E+04
 3.8587509E+01  3.4916328E+04
 3.8627518E+01  3.4551629E+04
 3.8667522E+01  3.4168805E+04
 3.8707531E+01  3.3780242E+04
 3.8747540E+01  3.3347402E+04
 3.8787548E+01  3.3169590E+04
 3.8827557E+01  3.2998992E+04
 3.8867561E+01  3.2908012E+04
 3.8907570E+01  3.2948707E+04
 3.8947578E+01  3.3069512E+04
 3.8987587E+01  3.3296180E+04
 3.9027596E+01  3.3645457E+04
 3.9067600E+01  3.4032391E+04
 3.9107609E+01  3.4417598E+04
 3.9147617E+01  3.4639965E+04
 3.9187626E+01  3.4766027E+04
 3.9227634E+01  3.4715012E+04
 3.9267639E+01  3.4580902E+04
 3.9307648E+01  3.4448918E+04
 3.9347656E+01  3.4363109E+04
 3.9387665E+01  3.4423508E+04
 3.9427673E+01  3.4594547E+04
 3.9467678E+01  3.4839574E+04
 3.9507687E+01  3.5080676E+04
 3.9547695E+01  3.5203500E+04
 3.9587704E+01  3.5093707E+04
 3.9627712E+01  3.4733133E+04
 3.9667717E+01  3.4187711E+04
 3.9707726E+01  3.3552004E+04
 3.9747734E+01  3.2945562E+04
 3.9787743E+01  3.2394592E+04
 3.9827751E+01  3.1930555E+04
 3.9867756E+01  3.1534828E+04
 3.9907764E+01  3.1228533E+04
 3.9947773E+01  3.0983826E+04
 3.9987782E+01  3.0835930E+04
 4.0027790E+01  3.0733527E+04
 4.0067795E+01  3.0687965E+04
 4.0107803E+01  3.0668121E+04
 4.0147812E+01  3.0745299E+04
 4.0187820E+01  3.0771428E+04
 4.0227829E+01  3.0801539E+04
 4.0267834E+01  3.0864979E+04
 4.0307842E+01  3.0908670E+04
 4.0347851E+01  3.0966178E+04
 4.0387859E+01  3.1071795E+04
 4.0427868E+01  3.1259326E+04
 4.0467873E+01  3.1465479E+04
 4.0507881E+01  3.1787568E+04
 4.0547890E+01  3.2174443E+04
 4.0587898E+01  3.2627580E+04
 4.0627907E+01  3.3081691E+04
 4.0667912E+01  3.3443516E+04
 4.0707920E+01  3.3707824E+04
 4.0747929E+01  3.3818621E+04
 4.0787937E+01  3.3786004E+04
 4.0827946E+01  3.3510484E+04
 4.0867950E+01  3.3167723E+04
 4.0907959E+01  3.2764346E+04
 4.0947968E+01  3.2436848E+04
 4.0987976E+01  3.2191455E+04
 4.1027985E+01  3.2025889E+04
 4.1067993E+01  3.1942523E+04
 4.1107998E+01  3.1948062E+04
 4.1148006E+01  3.2018141E+04
 4.1188015E+01  3.2131309E+04
 4.1228024E+01  3.2288035E+04
 4.1268032E+01  3.2442734E+04
 4.1308037E+01  3.2552990E+04
 4.1348045E+01  3.2616537E+04
 4.1388054E+01  3.2674967E+04
 4.1428062E+01  3.2778152E+04
 4.1468071E+01  3.2924527E+04
 4.1508076E+01  3.3202984E+04
 4.1548084E+01  3.3510816E+04
 4.1588093E+01  3.3829543E+04
 4.1628101E+01  3.4045648E+04
 4.1668110E+01  3.4134465E+04
 4.1708115E+01  3.4069895E+04
 4.1748123E+01  3.3793973E+04
 4.1788132E+01  3.3411891E+04
 4.1828140E+01  3.2972137E+04
 4.1868149E+01  3.2500049E+04
 4.1908154E+01  3.2070406E+04
 4.1948162E+01  3.1677107E+04
 4.1988171E+01  3.1355418E+04
 4.2028179E+01  3.1095381E+04
 4.2068188E+01  3.0910143E+04
 4.2108192E+01  3.0792271E+04
 4.2148201E+01  3.0720027E+04
 4.2188210E+01  3.0709338E+04
 4.2228218E+01  3.0738561E+04
 4.2268227E+01  3.0792410E+04
 4.2308231E+01  3.0850889E+04
 4.2348240E+01  3.0946299E+04
 4.2388248E+01  3.1091623E+04
 4.2428257E+01  3.1239650E+04
 4.2468266E+01  3.1458283E+04
 4.2508270E+01  3.1752729E+04
 4.2548279E+01  3.2108920E+04
 4.2588287E+01  3.2506006E+04
 4.2628296E+01  3.2844660E+04
 4.2668304E+01  3.3107395E+04
 4.2708309E+01  3.3187430E+04
 4.2748318E+01  3.3128062E+04
 4.2788326E+01  3.2908773E+04
 4.2828335E+01  3.2542623E+04
 4.2868343E+01  3.2070920E+04
 4.2908348E+01  3.1577393E+04
 4.2948357E+01  3.1086203E+04
 4.2988365E+01  3.0667379E+04
 4.3028374E+01  3.0283047E+04
 4.3068382E+01  2.9972998E+04
 4.3108387E+01  2.9751270E+04
 4.3148396E+01  2.9582570E+04
 4.3188404E+01  2.9454158E+04
 4.3228413E+01  2.9344412E+04
 4.3268421E+01  2.9206145E+04
 4.3308426E+01  2.9110549E+04
 4.3348434E+01  2.8970281E+04
 4.3388443E+01  2.8810189E+04
 4.3428452E+01  2.8694615E+04
 4.3468460E+01  2.8526412E+04
 4.3508465E+01  2.8405551E+04
 4.3548473E+01  2.8321359E+04
 4.3588482E+01  2.8292654E+04
 4.3628490E+01  2.8215344E+04
 4.3668499E+01  2.8125156E+04
 4.3708504E+01  2.7992990E+04
 4.3748512E+01  2.7829330E+04
 4.3788521E+01  2.7628518E+04
 4.3828529E+01  2.7446834E+04
 4.3868538E+01  2.7312850E+04
 4.3908543E+01  2.7174572E+04
 4.3948551E+01  2.7105406E+04
 4.3988560E+01  2.7015334E+04
 4.4028568E+01  2.6971719E+04
 4.4068577E+01  2.6940096E+04
 4.4108582E+01  2.6912682E+04
 4.4148590E+01  2.6886955E+04
 4.4188599E+01  2.6934010E+04
 4.4228607E+01  2.7023938E+04
 4.4268616E+01  2.7087891E+04
 4.4308620E+01  2.7173164E+04
 4.4348629E+01  2.7324988E+04
 4.4388638E+01  2.7494594E+04
 4.4428646E+01  2.7652494E+04
 4.4468655E+01  2.7847068E+04
 4.4508659E+01  2.8098357E+04
 4.4548668E+01  2.8377984E+04
 4.4588676E+01  2.8609531E+04
 4.4628685E+01  2.8839367E+04
 4.4668694E+01  2.8981770E+04
 4.4708698E+01  2.9017287E+04
 4.4748707E+01  2.8981385E+04
 4.4788715E+01  2.8849264E+04
 4.4828724E+01  2.8690146E+04
 4.4868732E+01  2.8543156E+04
 4.4908737E+01  2.8406361E+04
 4.4948746E+01  2.8275549E+04
 4.4988754E+01  2.8206566E+04
 4.5028763E+01  2.8154346E+04
 4.5068771E+01  2.8160230E+04
 4.5108776E+01  2.8236691E+04
 4.5148785E+01  2.8336605E+04
 4.5188793E+01  2.8434924E+04
 4.5228802E+01  2.8535908E+04
 4.5268810E+01  2.8546371E+04
 4.5308815E+01  2.8544516E+04
 4.5348824E+01  2.8536762E+04
 4.5388832E+01  2.8498297E+04
 4.5428841E+01  2.8484377E+04
 4.5468849E+01  2.8503191E+04
 4.5508854E+01  2.8568727E+04
 4.5548862E+01  2.8636664E+04
 4.5588871E+01  2.8683553E+04
 4.5628880E+01  2.8665387E+04
 4.5668888E+01  2.8602766E+04
 4.5708893E+01  2.8476807E+04
 4.5748901E+01  2.8287967E+04
 4.5788910E+01  2.8074107E+04
 4.5828918E+01  2.7855512E+04
 4.5868927E+01  2.7671377E+04
 4.5908932E+01  2.7480988E+04
 4.5948940E+01  2.7311229E+04
 4.5988949E+01  2.7222305E+04
 4.6028957E+01  2.7112094E+04
 4.6068966E+01  2.7066727E+04
 4.6108971E+01  2.7005344E+04
 4.6148979E+01  2.6974643E+04
 4.6188988E+01  2.7002336E+04
 4.6228996E+01  2.6991381E+04
 4.6269005E+01  2.6990406E+04
 4.6309010E+01  2.7030234E+04
 4.6349018E+01  2.7108367E+04
 4.6389027E+01  2.7171176E+04
 4.6429035E+01  2.7313164E+04
 4.6469044E+01  2.7482098E+04
 4.6509048E+01  2.7598229E+04
 4.6549057E+01  2.7698861E+04
 4.6589066E+01  2.7761982E+04
 4.6629074E+01  2.7746252E+04
 4.6669083E+01  2.7707219E+04
 4.6709087E+01  2.7638572E+04
 4.6749096E+01  2.7519115E+04
 4.6789104E+01  2.7344543E+04
 4.6829113E+01  2.7238393E+04
 4.6869122E+01  2.7133514E+04
 4.6909126E+01  2.7046188E+04
 4.6949135E+01  2.7026244E+04
 4.6989143E+01  2.6985961E+04
 4.7029152E+01  2.7010086E+04
 4.7069160E+01  2.6985836E+04
 4.7109165E+01  2.7017453E+04
 4.7149174E+01  2.6975215E+04
 4.7189182E+01  2.6935205E+04
 4.7229191E+01  2.6869797E+04
 4.7269199E+01  2.6799844E+04
 4.7309204E+01  2.6726500E+04
 4.7349213E+01  2.6691582E+04
 4.7389221E+01  2.6641764E+04
 4.7429230E+01  2.6583402E+04
 4.7469238E+01  2.6527812E+04
 4.7509243E+01  2.6431273E+04
 4.7549252E+01  2.6341912E+04
 4.7589260E+01  2.6177387E+04
 4.7629269E+01  2.6020426E+04
 4.7669277E+01  2.5868578E+04
 4.7709282E+01  2.5710463E+04
 4.7749290E+01  2.5572664E+04
 4.7789299E+01  2.5428250E+04
 4.7829308E+01  2.5263709E+04
 4.7869316E+01  2.5191621E+04
 4.7909321E+01  2.5107234E+04
 4.7949329E+01  2.5090756E+04
 4.7989338E+01  2.5056602E+04
 4.8029346E+01  2.4989514E+04
 4.8069355E+01  2.4946502E+04
 4.8109360E+01  2.4851697E+04
 4.8149368E+01  2.4792848E+04
 4.8189377E+01  2.5027234E+04
 4.8229385E+01  2.5125090E+04
 4.8269394E+01  2.5245074E+04
 4.8309399E+01  2.5317559E+04
 4.8349407E+01  2.5362283E+04
 4.8389416E+01  2.5427771E+04
 4.8429424E+01  2.5418750E+04
 4.8469433E+01  2.5386461E+04
 4.8509438E+01  2.5241660E+04
 4.8549446E+01  2.4945775E+04
 4.8589455E+01  2.4769469E+04
 4.8629463E+01  2.4568723E+04
 4.8669472E+01  2.4352586E+04
 4.8709476E+01  2.4144525E+04
 4.8749485E+01  2.3993986E+04
 4.8789494E+01  2.3707656E+04
 4.8829502E+01  2.3605340E+04
 4.8869511E+01  2.3595945E+04
 4.8909515E+01  2.3555154E+04
 4.8949524E+01  2.3515646E+04
 4.8989532E+01  2.3497711E+04
 4.9029541E+01  2.3388855E+04
 4.9069550E+01  2.3385750E+04
 4.9109554E+01  2.3383055E+04
 4.9149563E+01  2.3310467E+04
 4.9189571E+01  2.3332484E+04
 4.9229580E+01  2.3384459E+04
 4.9269588E+01  2.3367334E+04
 4.9309593E+01  2.3377264E+04
 4.9349602E+01  2.3281512E+04
 4.9389610E+01  2.3176170E+04
 4.9429619E+01  2.3062924E+04
 4.9469627E+01  2.2900271E+04
 4.9509632E+01  2.2758096E+04
 4.9549641E+01  2.2595324E+04
 4.9589649E+01  2.2452730E+04
 4.9629658E+01  2.2564656E+04
 4.9669666E+01  2.2588188E+04
 4.9709671E+01  2.2610408E+04
 4.9749680E+01  2.2602250E+04
 4.9789688E+01  2.2606908E+04
 4.9829697E+01  2.2618539E+04
 4.9869705E+01  2.2627762E+04
 4.9909710E+01  2.2676113E+04
 4.9949718E+01  2.2776639E+04
 4.9989727E+01  2.3069404E+04
 5.0029736E+01  2.3013361E+04
 5.0069744E+01  2.3020555E+04
 5.0109749E+01  2.3194615E+04
 5.0149757E+01  2.3278361E+04
 5.0189766E+01  2.3336695E+04
 5.0229774E+01  2.3476137E+04
 5.0269783E+01  2.3472885E+04
 5.0309788E+01  2.3467600E+04
 5.0349796E+01  2.3456117E+04
 5.0389805E+01  2.3426266E+04
 5.0429813E+01  2.3356441E+04
 5.0469822E+01  2.3327410E+04
 5.0509827E+01  2.3285463E+04
 5.0549835E+01  2.3300289E+04
 5.0589844E+01  2.3323943E+04
 5.0629852E+01  2.3348070E+04
 5.0669861E+01  2.3341336E+04
 5.0709866E+01  2.3367859E+04
 5.0749874E+01  2.3361225E+04
 5.0789883E+01  2.3328066E+04
 5.0829891E+01  2.3344826E+04
 5.0869900E+01  2.3317369E+04
 5.0909904E+01  2.3329975E+04
 5.0949913E+01  2.3351945E+04
 5.0989922E+01  2.3323910E+04
 5.1029930E+01  2.3287691E+04
 5.1069939E+01  2.3338787E+04
 5.1109943E+01  2.3291180E+04
 5.1149952E+01  2.3160568E+04
 5.1189960E+01  2.3088014E+04
 5.1229969E+01  2.2967982E+04
 5.1269978E+01  2.2796080E+04
 5.1309986E+01  2.2699549E+04
 5.1349991E+01  2.2571164E+04
 5.1389999E+01  2.2511729E+04
 5.1430008E+01  2.2446301E+04
 5.1470016E+01  2.2357957E+04
 5.1510025E+01  2.2266508E+04
 5.1550030E+01  2.2227604E+04
 5.1590038E+01  2.2210939E+04
 5.1630047E+01  2.2129348E+04
 5.1670055E+01  2.2144564E+04
 5.1710064E+01  2.2131590E+04
 5.1750069E+01  2.2168344E+04
 5.1790077E+01  2.2175660E+04
 5.1830086E+01  2.2168086E+04
 5.1870094E+01  2.2263838E+04
 5.1910103E+01  2.2272631E+04
 5.1950108E+01  2.2255104E+04
 5.1990116E+01  2.2346156E+04
 5.2030125E+01  2.2270982E+04
 5.2070133E+01  2.2236596E+04
 5.2110142E+01  2.2286447E+04
 5.2150146E+01  2.2165330E+04
 5.2190155E+01  2.2091410E+04
 5.2230164E+01  2.1946715E+04
 5.2270172E+01  2.1901752E+04
 5.2310181E+01  2.1918844E+04
 5.2350185E+01  2.1837172E+04
 5.2390194E+01  2.1816027E+04
 5.2430202E+01  2.1817219E+04
 5.2470211E+01  2.1740582E+04
 5.2510220E+01  2.1626891E+04
 5.2550224E+01  2.1560725E+04
 5.2590233E+01  2.1507354E+04
 5.2630241E+01  2.1388053E+04
 5.2670250E+01  2.1443477E+04
 5.2710258E+01  2.1416463E+04
 5.2750263E+01  2.1356270E+04
 5.2790272E+01  2.1312258E+04
 5.2830280E+01  2.1240207E+04
 5.2870289E+01  2.1226227E+04
 5.2910297E+01  2.1138684E+04
 5.2950302E+01  2.1048035E+04
 5.2990311E+01  2.0909016E+04
 5.3030319E+01  2.0895504E+04
 5.3070328E+01  2.0868041E+04
 5.3110336E+01  2.0827672E+04
 5.3150341E+01  2.0702566E+04
 5.3190350E+01  2.0770393E+04
 5.3230358E+01  2.0755959E+04
 5.3270367E+01  2.0752584E+04
 5.3310375E+01  2.0743217E+04
 5.3350380E+01  2.0755586E+04
 5.3390388E+01  2.0754443E+04
 5.3430397E+01  2.0701699E+04
 5.3470406E+01  2.0743277E+04
 5.3510414E+01  2.0748111E+04
 5.3550419E+01  2.0730836E+04
 5.3590427E+01  2.0749875E+04
 5.3630436E+01  2.0757633E+04
 5.3670444E+01  2.0700904E+04
 5.3710453E+01  2.0717518E+04
 5.3750458E+01  2.0624982E+04
 5.3790466E+01  2.0557936E+04
 5.3830475E+01  2.0516992E+04
 5.3870483E+01  2.0424488E+04
 5.3910492E+01  2.0378766E+04
 5.3950497E+01  2.0233461E+04
 5.3990505E+01  2.0221375E+04
 5.4030514E+01  2.0124801E+04
 5.4070522E+01  2.0102129E+04
 5.4110531E+01  2.0044324E+04
 5.4150536E+01  2.0034664E+04
 5.4190544E+01  1.9935586E+04
 5.4230553E+01  1.9846514E+04
 5.4270561E+01  1.9819588E+04
 5.4310570E+01  1.9727240E+04
 5.4350574E+01  1.9736363E+04
 5.4390583E+01  1.9667123E+04
 5.4430592E+01  1.9641354E+04
 5.4470600E+01  1.9576348E+04
 5.4510609E+01  1.9536990E+04
 5.4550613E+01  1.9442674E+04
 5.4590622E+01  1.9470898E+04
 5.4630630E+01  1.9350441E+04
 5.4670639E+01  1.9347723E+04
 5.4710648E+01  1.9307617E+04
 5.4750652E+01  1.9205744E+04
 5.4790661E+01  1.9273852E+04
 5.4830669E+01  1.9259156E+04
 5.4870678E+01  1.9263271E+04
 5.4910686E+01  1.9118523E+04
 5.4950691E+01  1.9117416E+04
 5.4990700E+01  1.9123391E+04
 5.5030708E+01  1.9029186E+04
 5.5070717E+01  1.9133434E+04
 5.5110725E+01  1.9110260E+04
 5.5150730E+01  1.9049750E+04
 5.5190739E+01  1.9071840E+04
 5.5230747E+01  1.8986873E+04
 5.5270756E+01  1.9075418E+04
 5.5310764E+01  1.8974643E+04
 5.5350769E+01  1.9036207E+04
 5.5390778E+01  1.9024402E+04
 5.5430786E+01  1.9078414E+04
 5.5470795E+01  1.9119727E+04
 5.5510803E+01  1.8986178E+04
 5.5550808E+01  1.8938545E+04
 5.5590816E+01  1.8948545E+04
 5.5630825E+01  1.8918023E+04
 5.5670834E+01  1.8893412E+04
 5.5710842E+01  1.8933844E+04
 5.5750847E+01  1.8871744E+04
 5.5790855E+01  1.8886283E+04
 5.5830864E+01  1.8864168E+04
 5.5870872E+01  1.8857660E+04
 5.5910881E+01  1.8811918E+04
 5.5950886E+01  1.8823674E+04
 5.5990894E+01  1.8802100E+04
 5.6030903E+01  1.8710389E+04
 5.6070911E+01  1.8700293E+04
 5.6110920E+01  1.8627781E+04
 5.6150925E+01  1.8610654E+04
 5.6190933E+01  1.8507078E+04
 5.6230942E+01  1.8433594E+04
 5.6270950E+01  1.8455045E+04
 5.6310959E+01  1.8267426E+04
 5.6350964E+01  1.8125873E+04
 5.6390972E+01  1.8049576E+04
 5.6430981E+01  1.7998859E+04
 5.6470989E+01  1.7797195E+04
 5.6510998E+01  1.7584311E+04
 5.6551003E+01  1.7718156E+04
 5.6591011E+01  1.7670764E+04
 5.6631020E+01  1.7580969E+04
 5.6671028E+01  1.7345900E+04
 5.6711037E+01  1.7325785E+04
 5.6751041E+01  1.7295062E+04
 5.6791050E+01  1.7272947E+04
 5.6831059E+01  1.7216533E+04
 5.6871067E+01  1.7062328E+04
 5.6911076E+01  1.7009455E+04
 5.6951080E+01  1.6775191E+04
 5.6991089E+01  1.6701672E+04
 5.7031097E+01  1.6627758E+04
 5.7071106E+01  1.6504041E+04
 5.7111115E+01  1.6423318E+04
 5.7151119E+01  1.6442426E+04
 5.7191128E+01  1.6325498E+04
 5.7231136E+01  1.6011691E+04
 5.7271145E+01  1.5946351E+04
 5.7311153E+01  1.5758960E+04
 5.7351158E+01  1.5546769E+04
 5.7391167E+01  1.5360938E+04
 5.7431175E+01  1.5221437E+04
 5.7471184E+01  1.5085664E+04
 5.7511192E+01  1.4729626E+04
 5.7551197E+01  1.4509434E+04
 5.7591206E+01  1.4237292E+04
 5.7631214E+01  1.3450065E+04
 5.7671223E+01  1.2869727E+04
 5.7711231E+01  1.3288630E+04
 5.7751236E+01  1.3369381E+04
 5.7791245E+01  1.2898242E+04
 5.7831253E+01  1.2690577E+04
 5.7871262E+01  1.2932139E+04
 5.7911270E+01  1.3153463E+04
 5.7951275E+01  1.3043113E+04
 5.7991283E+01  1.3238689E+04
 5.8031292E+01  1.3238413E+04
 5.8071301E+01  1.3335133E+04
 5.8111309E+01  1.2844366E+04
 5.8151314E+01  1.2603080E+04
 5.8191322E+01  1.1566280E+04
 5.8231331E+01  1.1030645E+04
 5.8271339E+01  1.0363593E+04
 5.8311348E+01  8.8760732E+03
 5.8351353E+01  6.9787026E+03
 5.8391361E+01  5.8584443E+03
 5.8431370E+01  5.1383281E+03
 5.8471378E+01  4.8487217E+03
 5.8511387E+01  3.3113154E+03
 5.8551392E+01  1.3902615E+03
 5.8591400E+01 -1.0018467E+03
