[DEFAULT]

version = diffpy.pdfgetx-2.0.0

# input and output specifications
dataformat = twotheta
inputfile = BaTiO3_nor.chi
backgroundfile =
outputtype = gr

# PDF calculation setup
mode = xray
wavelength = 0.142959
twothetazero = 0
composition = BaTiO3
bgscale = 1
rpoly = 0.9
qmaxinst = 28.5
qmin = 0
qmax = 26
rmin = 0
rmax = 30
rstep = 0.01

# End of config --------------------------------------------------------------

#### start data
#S 1
#L r(Å)  G(Å$^{-2}$)
0 0
0.01 -0.00616538
0.02 -0.0119065
0.03 -0.0168419
0.04 -0.0206428
0.05 -0.0230548
0.06 -0.0239137
0.07 -0.0231571
0.08 -0.0208281
0.09 -0.0170639
0.1 -0.0121027
0.11 -0.00630735
0.12 -6.25991e-05
0.13 0.00621554
0.14 0.0121066
0.15 0.0172132
0.16 0.021187
0.17 0.0237522
0.18 0.0246962
0.19 0.0239449
0.2 0.0215679
0.21 0.01772
0.22 0.0126575
0.23 0.00672128
0.24 0.00031552
0.25 -0.00611917
0.26 -0.0121357
0.27 -0.0172801
0.28 -0.0211924
0.29 -0.0236079
0.3 -0.0243673
0.31 -0.023438
0.32 -0.0209235
0.33 -0.0170627
0.34 -0.0122217
0.35 -0.00687599
0.36 -0.00160797
0.37 0.00295602
0.38 0.00620153
0.39 0.00755237
0.4 0.00651385
0.41 0.00271421
0.42 -0.00405842
0.43 -0.0138256
0.44 -0.0264208
0.45 -0.0414297
0.46 -0.0581311
0.47 -0.0756618
0.48 -0.0929828
0.49 -0.108919
0.5 -0.122208
0.51 -0.131562
0.52 -0.135727
0.53 -0.133415
0.54 -0.123642
0.55 -0.105775
0.56 -0.0793879
0.57 -0.044388
0.58 -0.0010468
0.59 0.0499879
0.6 0.107695
0.61 0.170701
0.62 0.237355
0.63 0.305537
0.64 0.373069
0.65 0.437692
0.66 0.497132
0.67 0.549193
0.68 0.591847
0.69 0.623322
0.7 0.642135
0.71 0.64687
0.72 0.637361
0.73 0.613558
0.74 0.575906
0.75 0.525335
0.76 0.463228
0.77 0.391368
0.78 0.311872
0.79 0.227079
0.8 0.139615
0.81 0.0521729
0.82 -0.032724
0.83 -0.112708
0.84 -0.185662
0.85 -0.249795
0.86 -0.303711
0.87 -0.346455
0.88 -0.377305
0.89 -0.396374
0.9 -0.404305
0.91 -0.40202
0.92 -0.39081
0.93 -0.37226
0.94 -0.348175
0.95 -0.320484
0.96 -0.291157
0.97 -0.262169
0.98 -0.235334
0.99 -0.212171
1 -0.19391
1.01 -0.181443
1.02 -0.175298
1.03 -0.175623
1.04 -0.182202
1.05 -0.194496
1.06 -0.211706
1.07 -0.232542
1.08 -0.255705
1.09 -0.279798
1.1 -0.303402
1.11 -0.325157
1.12 -0.343822
1.13 -0.358347
1.14 -0.367843
1.15 -0.371726
1.16 -0.36988
1.17 -0.362398
1.18 -0.349661
1.19 -0.332318
1.2 -0.311238
1.21 -0.287471
1.22 -0.262183
1.23 -0.236618
1.24 -0.212045
1.25 -0.189598
1.26 -0.170273
1.27 -0.154882
1.28 -0.14402
1.29 -0.138034
1.3 -0.137014
1.31 -0.140794
1.32 -0.149074
1.33 -0.161068
1.34 -0.17594
1.35 -0.192739
1.36 -0.210433
1.37 -0.227968
1.38 -0.244319
1.39 -0.258542
1.4 -0.269795
1.41 -0.277338
1.42 -0.280813
1.43 -0.28
1.44 -0.2749
1.45 -0.265732
1.46 -0.252913
1.47 -0.237033
1.48 -0.218825
1.49 -0.199118
1.5 -0.17885
1.51 -0.158951
1.52 -0.140288
1.53 -0.123651
1.54 -0.109714
1.55 -0.0990069
1.56 -0.0918956
1.57 -0.088567
1.58 -0.0891104
1.59 -0.09328
1.6 -0.10069
1.61 -0.110852
1.62 -0.123164
1.63 -0.13695
1.64 -0.151488
1.65 -0.166052
1.66 -0.179941
1.67 -0.192456
1.68 -0.20308
1.69 -0.21139
1.7 -0.217094
1.71 -0.220041
1.72 -0.220218
1.73 -0.217753
1.74 -0.212894
1.75 -0.205988
1.76 -0.197477
1.77 -0.187922
1.78 -0.177863
1.79 -0.167845
1.8 -0.158388
1.81 -0.149964
1.82 -0.142976
1.83 -0.137739
1.84 -0.134502
1.85 -0.133372
1.86 -0.134307
1.87 -0.13719
1.88 -0.14181
1.89 -0.147874
1.9 -0.155024
1.91 -0.162858
1.92 -0.170946
1.93 -0.178845
1.94 -0.18613
1.95 -0.192437
1.96 -0.197458
1.97 -0.200958
1.98 -0.202785
1.99 -0.202876
2 -0.201259
2.01 -0.19805
2.02 -0.193417
2.03 -0.187687
2.04 -0.181194
2.05 -0.174314
2.06 -0.16744
2.07 -0.16097
2.08 -0.155287
2.09 -0.150738
2.1 -0.147634
2.11 -0.146236
2.12 -0.146659
2.13 -0.148965
2.14 -0.153131
2.15 -0.159049
2.16 -0.16653
2.17 -0.175313
2.18 -0.185079
2.19 -0.195468
2.2 -0.206066
2.21 -0.216464
2.22 -0.226277
2.23 -0.235148
2.24 -0.242769
2.25 -0.248891
2.26 -0.253342
2.27 -0.256027
2.28 -0.256896
2.29 -0.25607
2.3 -0.253727
2.31 -0.250103
2.32 -0.245496
2.33 -0.240242
2.34 -0.234707
2.35 -0.22926
2.36 -0.224263
2.37 -0.220071
2.38 -0.216943
2.39 -0.215082
2.4 -0.214615
2.41 -0.215586
2.42 -0.217949
2.43 -0.221572
2.44 -0.226243
2.45 -0.231684
2.46 -0.237537
2.47 -0.2434
2.48 -0.248862
2.49 -0.253512
2.5 -0.256955
2.51 -0.258825
2.52 -0.25881
2.53 -0.256655
2.54 -0.252126
2.55 -0.245129
2.56 -0.235663
2.57 -0.223769
2.58 -0.20955
2.59 -0.193156
2.6 -0.174775
2.61 -0.154619
2.62 -0.132904
2.63 -0.109808
2.64 -0.085558
2.65 -0.0603184
2.66 -0.0342114
2.67 -0.00732423
2.68 0.0202881
2.69 0.0485948
2.7 0.0775774
2.71 0.107218
2.72 0.137487
2.73 0.168283
2.74 0.199464
2.75 0.230816
2.76 0.262038
2.77 0.292737
2.78 0.322426
2.79 0.350529
2.8 0.37635
2.81 0.39912
2.82 0.418128
2.83 0.432625
2.84 0.441892
2.85 0.445285
2.86 0.442267
2.87 0.432446
2.88 0.415608
2.89 0.391594
2.9 0.360709
2.91 0.323491
2.92 0.280626
2.93 0.233012
2.94 0.181728
2.95 0.128007
2.96 0.0731796
2.97 0.0186324
2.98 -0.0341627
2.99 -0.0838981
3 -0.129407
3.01 -0.169702
3.02 -0.20403
3.03 -0.231902
3.04 -0.25312
3.05 -0.267787
3.06 -0.276268
3.07 -0.279162
3.08 -0.277566
3.09 -0.272591
3.1 -0.265469
3.11 -0.257478
3.12 -0.24987
3.13 -0.243791
3.14 -0.240212
3.15 -0.239916
3.16 -0.243347
3.17 -0.250499
3.18 -0.261055
3.19 -0.274333
3.2 -0.289301
3.21 -0.304611
3.22 -0.31866
3.23 -0.329656
3.24 -0.335542
3.25 -0.334406
3.26 -0.324506
3.27 -0.304258
3.28 -0.272379
3.29 -0.227969
3.3 -0.170577
3.31 -0.100256
3.32 -0.0175867
3.33 0.0766074
3.34 0.180253
3.35 0.291186
3.36 0.406855
3.37 0.5244
3.38 0.640758
3.39 0.752776
3.4 0.857333
3.41 0.951358
3.42 1.03183
3.43 1.09672
3.44 1.14425
3.45 1.17316
3.46 1.18278
3.47 1.17306
3.48 1.14455
3.49 1.09836
3.5 1.03589
3.51 0.959344
3.52 0.871412
3.53 0.774753
3.54 0.672131
3.55 0.566302
3.56 0.459907
3.57 0.35537
3.58 0.254814
3.59 0.160169
3.6 0.0727081
3.61 -0.00675914
3.62 -0.0778087
3.63 -0.140422
3.64 -0.194937
3.65 -0.241985
3.66 -0.28241
3.67 -0.317181
3.68 -0.347199
3.69 -0.373586
3.7 -0.397137
3.71 -0.418429
3.72 -0.437772
3.73 -0.455167
3.74 -0.470297
3.75 -0.482534
3.76 -0.490917
3.77 -0.494168
3.78 -0.49104
3.79 -0.480122
3.8 -0.460017
3.81 -0.429431
3.82 -0.387269
3.83 -0.332723
3.84 -0.265347
3.85 -0.184899
3.86 -0.0919196
3.87 0.0124122
3.88 0.126615
3.89 0.248746
3.9 0.376451
3.91 0.507027
3.92 0.637516
3.93 0.764798
3.94 0.885444
3.95 0.996359
3.96 1.09468
3.97 1.17779
3.98 1.24349
3.99 1.29001
4 1.31616
4.01 1.32129
4.02 1.30532
4.03 1.26826
4.04 1.21192
4.05 1.138
4.06 1.04861
4.07 0.946253
4.08 0.833681
4.09 0.713822
4.1 0.58967
4.11 0.464197
4.12 0.340364
4.13 0.220772
4.14 0.107689
4.15 0.00302097
4.16 -0.0917291
4.17 -0.175482
4.18 -0.247591
4.19 -0.307827
4.2 -0.356142
4.21 -0.393173
4.22 -0.419924
4.23 -0.437478
4.24 -0.447088
4.25 -0.45011
4.26 -0.447937
4.27 -0.44194
4.28 -0.433411
4.29 -0.423513
4.3 -0.413311
4.31 -0.40361
4.32 -0.395006
4.33 -0.387892
4.34 -0.382464
4.35 -0.378739
4.36 -0.376578
4.37 -0.375719
4.38 -0.375815
4.39 -0.376411
4.4 -0.377078
4.41 -0.377405
4.42 -0.377028
4.43 -0.375656
4.44 -0.37309
4.45 -0.369233
4.46 -0.364083
4.47 -0.357759
4.48 -0.350512
4.49 -0.342646
4.5 -0.334527
4.51 -0.326554
4.52 -0.319138
4.53 -0.312672
4.54 -0.307506
4.55 -0.303958
4.56 -0.302208
4.57 -0.302309
4.58 -0.304216
4.59 -0.307755
4.6 -0.312632
4.61 -0.318437
4.62 -0.324656
4.63 -0.330694
4.64 -0.33585
4.65 -0.339434
4.66 -0.340764
4.67 -0.339192
4.68 -0.334135
4.69 -0.325106
4.7 -0.311739
4.71 -0.293814
4.72 -0.271242
4.73 -0.244048
4.74 -0.212655
4.75 -0.177531
4.76 -0.139299
4.77 -0.0987177
4.78 -0.0566573
4.79 -0.0140699
4.8 0.0280445
4.81 0.0686377
4.82 0.106665
4.83 0.141237
4.84 0.171532
4.85 0.196857
4.86 0.216666
4.87 0.230582
4.88 0.2384
4.89 0.240091
4.9 0.235672
4.91 0.225542
4.92 0.210211
4.93 0.190238
4.94 0.166263
4.95 0.138969
4.96 0.109058
4.97 0.0772097
4.98 0.0440615
4.99 0.0101716
5 -0.0239544
5.01 -0.0579552
5.02 -0.0915793
5.03 -0.124681
5.04 -0.157209
5.05 -0.189197
5.06 -0.220737
5.07 -0.251956
5.08 -0.282996
5.09 -0.313987
5.1 -0.345006
5.11 -0.376068
5.12 -0.407108
5.13 -0.437974
5.14 -0.468426
5.15 -0.498137
5.16 -0.526686
5.17 -0.553599
5.18 -0.578421
5.19 -0.600687
5.2 -0.619973
5.21 -0.635927
5.22 -0.648299
5.23 -0.656967
5.24 -0.661955
5.25 -0.663368
5.26 -0.661626
5.27 -0.65726
5.28 -0.650894
5.29 -0.643246
5.3 -0.635085
5.31 -0.627183
5.32 -0.620264
5.33 -0.61495
5.34 -0.611778
5.35 -0.610928
5.36 -0.612377
5.37 -0.615817
5.38 -0.620639
5.39 -0.625934
5.4 -0.630501
5.41 -0.632886
5.42 -0.631371
5.43 -0.623973
5.44 -0.608896
5.45 -0.584277
5.46 -0.548373
5.47 -0.49965
5.48 -0.436878
5.49 -0.359207
5.5 -0.266246
5.51 -0.157865
5.52 -0.0348362
5.53 0.101312
5.54 0.248725
5.55 0.405028
5.56 0.567381
5.57 0.732557
5.58 0.897043
5.59 1.05714
5.6 1.2088
5.61 1.34835
5.62 1.47241
5.63 1.57788
5.64 1.66209
5.65 1.72296
5.66 1.75898
5.67 1.76935
5.68 1.75389
5.69 1.71251
5.7 1.64733
5.71 1.56029
5.72 1.45387
5.73 1.331
5.74 1.19493
5.75 1.04915
5.76 0.897237
5.77 0.742757
5.78 0.589277
5.79 0.439978
5.8 0.297633
5.81 0.164588
5.82 0.0427143
5.83 -0.0666244
5.84 -0.16258
5.85 -0.244809
5.86 -0.313194
5.87 -0.368415
5.88 -0.411606
5.89 -0.443996
5.9 -0.467019
5.91 -0.482228
5.92 -0.491218
5.93 -0.495555
5.94 -0.496709
5.95 -0.495983
5.96 -0.494573
5.97 -0.493369
5.98 -0.493012
5.99 -0.493907
6 -0.496229
6.01 -0.499949
6.02 -0.504859
6.03 -0.51061
6.04 -0.516734
6.05 -0.52268
6.06 -0.527898
6.07 -0.531852
6.08 -0.534045
6.09 -0.534049
6.1 -0.531521
6.11 -0.526213
6.12 -0.517948
6.13 -0.506668
6.14 -0.492505
6.15 -0.475627
6.16 -0.456282
6.17 -0.434787
6.18 -0.411516
6.19 -0.386885
6.2 -0.361345
6.21 -0.335362
6.22 -0.309439
6.23 -0.284051
6.24 -0.259657
6.25 -0.23669
6.26 -0.215548
6.27 -0.196583
6.28 -0.180091
6.29 -0.166292
6.3 -0.155408
6.31 -0.147395
6.32 -0.142148
6.33 -0.139446
6.34 -0.138925
6.35 -0.140074
6.36 -0.142234
6.37 -0.144602
6.38 -0.146228
6.39 -0.145974
6.4 -0.142709
6.41 -0.135233
6.42 -0.122345
6.43 -0.102881
6.44 -0.0757749
6.45 -0.0401104
6.46 0.0048253
6.47 0.0596247
6.48 0.124481
6.49 0.198989
6.5 0.282557
6.51 0.374216
6.52 0.472625
6.53 0.576091
6.54 0.682606
6.55 0.789904
6.56 0.895425
6.57 0.996497
6.58 1.09055
6.59 1.17509
6.6 1.2478
6.61 1.30664
6.62 1.34996
6.63 1.37653
6.64 1.38564
6.65 1.37659
6.66 1.35034
6.67 1.30795
6.68 1.25097
6.69 1.18145
6.7 1.10182
6.71 1.01486
6.72 0.923545
6.73 0.830973
6.74 0.740363
6.75 0.654641
6.76 0.57643
6.77 0.507977
6.78 0.451067
6.79 0.406958
6.8 0.376334
6.81 0.359288
6.82 0.355506
6.83 0.36387
6.84 0.382549
6.85 0.409518
6.86 0.44243
6.87 0.478722
6.88 0.515727
6.89 0.550796
6.9 0.581403
6.91 0.605042
6.92 0.61979
6.93 0.624184
6.94 0.617166
6.95 0.59817
6.96 0.567126
6.97 0.52445
6.98 0.471006
6.99 0.408053
7 0.336983
7.01 0.259952
7.02 0.178947
7.03 0.0960043
7.04 0.013118
7.05 -0.0678393
7.06 -0.145191
7.07 -0.217513
7.08 -0.283622
7.09 -0.342591
7.1 -0.394134
7.11 -0.438143
7.12 -0.474799
7.13 -0.504544
7.14 -0.528017
7.15 -0.546006
7.16 -0.559382
7.17 -0.568991
7.18 -0.575731
7.19 -0.580408
7.2 -0.583632
7.21 -0.585839
7.22 -0.58728
7.23 -0.588008
7.24 -0.587889
7.25 -0.586623
7.26 -0.583714
7.27 -0.578626
7.28 -0.570775
7.29 -0.559566
7.3 -0.54445
7.31 -0.52497
7.32 -0.500804
7.33 -0.471791
7.34 -0.437954
7.35 -0.399409
7.36 -0.356762
7.37 -0.31067
7.38 -0.261965
7.39 -0.211627
7.4 -0.16075
7.41 -0.110503
7.42 -0.0620842
7.43 -0.0167204
7.44 0.0243625
7.45 0.0602145
7.46 0.0899556
7.47 0.11287
7.48 0.128426
7.49 0.13629
7.5 0.136327
7.51 0.128602
7.52 0.113234
7.53 0.0907082
7.54 0.0617107
7.55 0.026941
7.56 -0.0128117
7.57 -0.0566966
7.58 -0.10383
7.59 -0.153321
7.6 -0.204293
7.61 -0.255904
7.62 -0.307325
7.63 -0.357839
7.64 -0.406802
7.65 -0.45365
7.66 -0.497891
7.67 -0.53911
7.68 -0.57696
7.69 -0.611145
7.7 -0.641335
7.71 -0.667469
7.72 -0.689422
7.73 -0.707114
7.74 -0.720498
7.75 -0.729562
7.76 -0.734325
7.77 -0.734837
7.78 -0.731132
7.79 -0.723293
7.8 -0.711553
7.81 -0.696091
7.82 -0.677117
7.83 -0.654872
7.84 -0.629626
7.85 -0.601679
7.86 -0.571353
7.87 -0.538964
7.88 -0.504912
7.89 -0.469607
7.9 -0.433448
7.91 -0.396843
7.92 -0.36021
7.93 -0.323974
7.94 -0.288564
7.95 -0.254412
7.96 -0.222013
7.97 -0.191775
7.98 -0.164121
7.99 -0.139472
8 -0.118237
8.01 -0.100805
8.02 -0.0875381
8.03 -0.0787594
8.04 -0.0747689
8.05 -0.0759008
8.06 -0.0821567
8.07 -0.0935816
8.08 -0.110121
8.09 -0.131611
8.1 -0.157769
8.11 -0.188194
8.12 -0.222361
8.13 -0.259658
8.14 -0.299307
8.15 -0.340393
8.16 -0.381993
8.17 -0.423134
8.18 -0.462827
8.19 -0.500096
8.2 -0.53401
8.21 -0.563719
8.22 -0.588364
8.23 -0.607388
8.24 -0.620435
8.25 -0.627286
8.26 -0.627922
8.27 -0.622527
8.28 -0.611484
8.29 -0.595362
8.3 -0.574889
8.31 -0.550856
8.32 -0.524359
8.33 -0.49642
8.34 -0.468054
8.35 -0.440236
8.36 -0.413847
8.37 -0.389641
8.38 -0.368203
8.39 -0.349942
8.4 -0.335092
8.41 -0.323491
8.42 -0.314833
8.43 -0.308602
8.44 -0.304093
8.45 -0.300449
8.46 -0.2967
8.47 -0.291811
8.48 -0.284685
8.49 -0.27426
8.5 -0.259673
8.51 -0.24017
8.52 -0.215185
8.53 -0.184368
8.54 -0.147611
8.55 -0.105056
8.56 -0.0570877
8.57 -0.00423484
8.58 0.0525648
8.59 0.112268
8.6 0.173764
8.61 0.235887
8.62 0.297475
8.63 0.357429
8.64 0.414768
8.65 0.468687
8.66 0.518455
8.67 0.563869
8.68 0.6049
8.69 0.641797
8.7 0.675084
8.71 0.705536
8.72 0.734148
8.73 0.76208
8.74 0.790621
8.75 0.821179
8.76 0.855025
8.77 0.893336
8.78 0.937115
8.79 0.987121
8.8 1.04382
8.81 1.10734
8.82 1.17744
8.83 1.25358
8.84 1.33466
8.85 1.41918
8.86 1.50542
8.87 1.59134
8.88 1.67475
8.89 1.75328
8.9 1.82453
8.91 1.88612
8.92 1.93543
8.93 1.97055
8.94 1.98982
8.95 1.99186
8.96 1.97567
8.97 1.94073
8.98 1.88696
8.99 1.81477
9 1.72501
9.01 1.61858
9.02 1.49777
9.03 1.36465
9.04 1.22156
9.05 1.07105
9.06 0.915729
9.07 0.758272
9.08 0.601281
9.09 0.447283
9.1 0.298709
9.11 0.157477
9.12 0.0252553
9.13 -0.0966307
9.14 -0.207219
9.15 -0.305914
9.16 -0.392479
9.17 -0.467017
9.18 -0.529737
9.19 -0.581403
9.2 -0.623088
9.21 -0.655855
9.22 -0.680872
9.23 -0.699353
9.24 -0.712512
9.25 -0.721515
9.26 -0.727447
9.27 -0.731241
9.28 -0.733795
9.29 -0.735784
9.3 -0.73772
9.31 -0.739967
9.32 -0.742759
9.33 -0.746215
9.34 -0.750363
9.35 -0.755171
9.36 -0.760576
9.37 -0.766472
9.38 -0.772785
9.39 -0.779468
9.4 -0.786514
9.41 -0.793957
9.42 -0.801873
9.43 -0.810369
9.44 -0.819577
9.45 -0.829628
9.46 -0.840587
9.47 -0.852476
9.48 -0.865223
9.49 -0.878645
9.5 -0.892416
9.51 -0.906058
9.52 -0.918924
9.53 -0.930147
9.54 -0.938706
9.55 -0.943486
9.56 -0.943239
9.57 -0.936644
9.58 -0.922348
9.59 -0.899024
9.6 -0.865423
9.61 -0.82044
9.62 -0.762801
9.63 -0.692151
9.64 -0.608241
9.65 -0.511131
9.66 -0.401272
9.67 -0.279523
9.68 -0.147159
9.69 -0.00585526
9.7 0.14235
9.71 0.29506
9.72 0.44938
9.73 0.602407
9.74 0.751115
9.75 0.892445
9.76 1.0234
9.77 1.14112
9.78 1.243
9.79 1.3265
9.8 1.38955
9.81 1.43114
9.82 1.45044
9.83 1.44717
9.84 1.42162
9.85 1.37463
9.86 1.30756
9.87 1.22227
9.88 1.12078
9.89 1.00603
9.9 0.881118
9.91 0.749153
9.92 0.613298
9.93 0.476693
9.94 0.342355
9.95 0.213099
9.96 0.091453
9.97 -0.0200456
9.98 -0.119841
9.99 -0.206644
10 -0.279581
10.01 -0.338222
10.02 -0.382551
10.03 -0.412941
10.04 -0.430102
10.05 -0.434965
10.06 -0.428576
10.07 -0.412638
10.08 -0.388603
10.09 -0.357932
10.1 -0.322036
10.11 -0.28222
10.12 -0.239645
10.13 -0.195294
10.14 -0.149946
10.15 -0.104199
10.16 -0.0584264
10.17 -0.0128062
10.18 0.0326409
10.19 0.0780155
10.2 0.123501
10.21 0.169321
10.22 0.2157
10.23 0.262836
10.24 0.310818
10.25 0.359618
10.26 0.409077
10.27 0.458887
10.28 0.508589
10.29 0.557575
10.3 0.605105
10.31 0.650326
10.32 0.692168
10.33 0.729711
10.34 0.761968
10.35 0.787986
10.36 0.806884
10.37 0.817893
10.38 0.820388
10.39 0.813912
10.4 0.79813
10.41 0.772827
10.42 0.738403
10.43 0.695229
10.44 0.64387
10.45 0.585064
10.46 0.519695
10.47 0.448767
10.48 0.373372
10.49 0.294618
10.5 0.213726
10.51 0.13189
10.52 0.0502018
10.53 -0.0303256
10.54 -0.108776
10.55 -0.184348
10.56 -0.256367
10.57 -0.32429
10.58 -0.387586
10.59 -0.446042
10.6 -0.499539
10.61 -0.548025
10.62 -0.591538
10.63 -0.630186
10.64 -0.664133
10.65 -0.693577
10.66 -0.718741
10.67 -0.739737
10.68 -0.756929
10.69 -0.770529
10.7 -0.780734
10.71 -0.78772
10.72 -0.791642
10.73 -0.79264
10.74 -0.790841
10.75 -0.786342
10.76 -0.779237
10.77 -0.769723
10.78 -0.757953
10.79 -0.744105
10.8 -0.728388
10.81 -0.711049
10.82 -0.692369
10.83 -0.67267
10.84 -0.652305
10.85 -0.631687
10.86 -0.611246
10.87 -0.591419
10.88 -0.572653
10.89 -0.555392
10.9 -0.540067
10.91 -0.527084
10.92 -0.516809
10.93 -0.509647
10.94 -0.505801
10.95 -0.505427
10.96 -0.50862
10.97 -0.515385
10.98 -0.525635
10.99 -0.539183
11 -0.555746
11.01 -0.574952
11.02 -0.59637
11.03 -0.619358
11.04 -0.643285
11.05 -0.667458
11.06 -0.691142
11.07 -0.713576
11.08 -0.733992
11.09 -0.751633
11.1 -0.765732
11.11 -0.77555
11.12 -0.780581
11.13 -0.780339
11.14 -0.774457
11.15 -0.762698
11.16 -0.744964
11.17 -0.721312
11.18 -0.691953
11.19 -0.65716
11.2 -0.61752
11.21 -0.573778
11.22 -0.526739
11.23 -0.477313
11.24 -0.426502
11.25 -0.37537
11.26 -0.325014
11.27 -0.276541
11.28 -0.23115
11.29 -0.189838
11.3 -0.153531
11.31 -0.123061
11.32 -0.0991248
11.33 -0.0822683
11.34 -0.0728697
11.35 -0.0711298
11.36 -0.0770952
11.37 -0.0907683
11.38 -0.111565
11.39 -0.138951
11.4 -0.172238
11.41 -0.210599
11.42 -0.253094
11.43 -0.29869
11.44 -0.346286
11.45 -0.394736
11.46 -0.442825
11.47 -0.489395
11.48 -0.533339
11.49 -0.573613
11.5 -0.609252
11.51 -0.639386
11.52 -0.663256
11.53 -0.680222
11.54 -0.689612
11.55 -0.691106
11.56 -0.684558
11.57 -0.669867
11.58 -0.647057
11.59 -0.616269
11.6 -0.577754
11.61 -0.531859
11.62 -0.479013
11.63 -0.419545
11.64 -0.354204
11.65 -0.283608
11.66 -0.208375
11.67 -0.129131
11.68 -0.0464961
11.69 0.0389326
11.7 0.126589
11.71 0.215958
11.72 0.306575
11.73 0.397985
11.74 0.489839
11.75 0.581845
11.76 0.673764
11.77 0.765408
11.78 0.856626
11.79 0.947294
11.8 1.03729
11.81 1.12647
11.82 1.21472
11.83 1.30185
11.84 1.38759
11.85 1.47163
11.86 1.55355
11.87 1.63283
11.88 1.70885
11.89 1.78076
11.9 1.84775
11.91 1.9089
11.92 1.96322
11.93 2.00965
11.94 2.04709
11.95 2.07449
11.96 2.09082
11.97 2.09512
11.98 2.08617
11.99 2.06369
12 2.02725
12.01 1.97667
12.02 1.912
12.03 1.83358
12.04 1.74205
12.05 1.63832
12.06 1.52351
12.07 1.39898
12.08 1.2667
12.09 1.12856
12.1 0.986578
12.11 0.842865
12.12 0.699547
12.13 0.558717
12.14 0.422375
12.15 0.292491
12.16 0.170784
12.17 0.0585009
12.18 -0.0432983
12.19 -0.133876
12.2 -0.212831
12.21 -0.280098
12.22 -0.335942
12.23 -0.380934
12.24 -0.415705
12.25 -0.44155
12.26 -0.459822
12.27 -0.471907
12.28 -0.479246
12.29 -0.483274
12.3 -0.48536
12.31 -0.486752
12.32 -0.488527
12.33 -0.491615
12.34 -0.496599
12.35 -0.503809
12.36 -0.513307
12.37 -0.524887
12.38 -0.538097
12.39 -0.55226
12.4 -0.566519
12.41 -0.579853
12.42 -0.591089
12.43 -0.599117
12.44 -0.60283
12.45 -0.601196
12.46 -0.593311
12.47 -0.578435
12.48 -0.556038
12.49 -0.525821
12.5 -0.487606
12.51 -0.441651
12.52 -0.388577
12.53 -0.329131
12.54 -0.264284
12.55 -0.195204
12.56 -0.123215
12.57 -0.0497587
12.58 0.0236506
12.59 0.0953878
12.6 0.163904
12.61 0.227766
12.62 0.28564
12.63 0.336342
12.64 0.378867
12.65 0.412411
12.66 0.436392
12.67 0.450436
12.68 0.454144
12.69 0.44795
12.7 0.432205
12.71 0.407459
12.72 0.37444
12.73 0.334028
12.74 0.287226
12.75 0.235135
12.76 0.178884
12.77 0.11969
12.78 0.0588361
12.79 -0.00251365
12.8 -0.0632507
12.81 -0.122343
12.82 -0.178854
12.83 -0.231957
12.84 -0.280945
12.85 -0.32514
12.86 -0.364104
12.87 -0.397589
12.88 -0.425408
12.89 -0.447487
12.9 -0.463849
12.91 -0.47461
12.92 -0.479955
12.93 -0.480123
12.94 -0.475271
12.95 -0.465823
12.96 -0.452111
12.97 -0.434436
12.98 -0.413076
12.99 -0.388282
13 -0.360268
13.01 -0.329211
13.02 -0.295242
13.03 -0.258401
13.04 -0.218852
13.05 -0.176661
13.06 -0.131895
13.07 -0.0846322
13.08 -0.0349831
13.09 0.016899
13.1 0.0708011
13.11 0.126454
13.12 0.183478
13.13 0.241369
13.14 0.299565
13.15 0.35741
13.16 0.414166
13.17 0.469018
13.18 0.521095
13.19 0.569486
13.2 0.613154
13.21 0.651186
13.22 0.682773
13.23 0.707125
13.24 0.723556
13.25 0.731507
13.26 0.730571
13.27 0.72051
