[DEFAULT]

version = diffpy.pdfgetx-2.0.0

# input and output specifications
dataformat = twotheta
inputfile = ni300mesh_300k_nor_1-5.chi
backgroundfile = kapton_bgrd_300k_nor_2-3.chi
outputtype = gr

# PDF calculation setup
mode = xray
wavelength = 0.142774
twothetazero = 0
composition = Ni
bgscale = 1
rpoly = 0.9
qmaxinst = 26.5
qmin = 0
qmax = 26
rmin = 0
rmax = 30
rstep = 0.01

# End of config --------------------------------------------------------------

#### start data
#S 1
#L r(Å)  G(Å$^{-2}$)
0 0
0.01 -0.00272255
0.02 -0.00526172
0.03 -0.00745207
0.04 -0.00915096
0.05 -0.0102477
0.06 -0.0106705
0.07 -0.0103914
0.08 -0.00942763
0.09 -0.00784103
0.1 -0.00572634
0.11 -0.00323213
0.12 -0.000526653
0.13 0.0022138
0.14 0.00481098
0.15 0.00709614
0.16 0.00892085
0.17 0.0101665
0.18 0.0107518
0.19 0.0106312
0.2 0.00980551
0.21 0.00834294
0.22 0.00633686
0.23 0.00391315
0.24 0.00122105
0.25 -0.00157761
0.26 -0.00432011
0.27 -0.0068547
0.28 -0.00905192
0.29 -0.0107997
0.3 -0.0120546
0.31 -0.0128087
0.32 -0.0131001
0.33 -0.0130108
0.34 -0.0126609
0.35 -0.0121998
0.36 -0.0117945
0.37 -0.011616
0.38 -0.0118347
0.39 -0.0125843
0.4 -0.0139478
0.41 -0.0159571
0.42 -0.0185784
0.43 -0.0217064
0.44 -0.0251617
0.45 -0.0286934
0.46 -0.0319857
0.47 -0.0346597
0.48 -0.0362785
0.49 -0.0364287
0.5 -0.0346903
0.51 -0.0306724
0.52 -0.0240364
0.53 -0.0145179
0.54 -0.00194635
0.55 0.0137394
0.56 0.0324793
0.57 0.0541598
0.58 0.0783677
0.59 0.104654
0.6 0.132468
0.61 0.161167
0.62 0.190046
0.63 0.21836
0.64 0.245356
0.65 0.270298
0.66 0.292434
0.67 0.311154
0.68 0.325989
0.69 0.336558
0.7 0.342613
0.71 0.344046
0.72 0.340885
0.73 0.333293
0.74 0.321549
0.75 0.30601
0.76 0.287118
0.77 0.265478
0.78 0.24164
0.79 0.216156
0.8 0.189556
0.81 0.162325
0.82 0.134891
0.83 0.10761
0.84 0.0807617
0.85 0.0545689
0.86 0.0291422
0.87 0.00453985
0.88 -0.0192271
0.89 -0.0421791
0.9 -0.064351
0.91 -0.0857745
0.92 -0.106462
0.93 -0.126394
0.94 -0.145493
0.95 -0.163651
0.96 -0.180722
0.97 -0.196515
0.98 -0.210811
0.99 -0.223385
1 -0.234021
1.01 -0.242532
1.02 -0.248787
1.03 -0.252704
1.04 -0.254289
1.05 -0.253732
1.06 -0.251286
1.07 -0.247309
1.08 -0.242262
1.09 -0.236689
1.1 -0.231199
1.11 -0.226433
1.12 -0.22304
1.13 -0.221705
1.14 -0.222934
1.15 -0.227152
1.16 -0.234652
1.17 -0.245565
1.18 -0.259847
1.19 -0.277265
1.2 -0.297409
1.21 -0.319699
1.22 -0.34342
1.23 -0.367685
1.24 -0.391569
1.25 -0.414145
1.26 -0.434519
1.27 -0.451881
1.28 -0.465553
1.29 -0.475031
1.3 -0.480017
1.31 -0.480412
1.32 -0.476346
1.33 -0.468364
1.34 -0.457127
1.35 -0.443491
1.36 -0.428458
1.37 -0.413128
1.38 -0.398637
1.39 -0.386097
1.4 -0.376531
1.41 -0.370943
1.42 -0.369914
1.43 -0.373837
1.44 -0.382838
1.45 -0.396753
1.46 -0.415134
1.47 -0.437267
1.48 -0.462211
1.49 -0.488843
1.5 -0.515906
1.51 -0.542053
1.52 -0.566025
1.53 -0.586676
1.54 -0.60304
1.55 -0.614386
1.56 -0.620267
1.57 -0.620548
1.58 -0.615424
1.59 -0.60538
1.6 -0.591206
1.61 -0.574099
1.62 -0.555326
1.63 -0.536264
1.64 -0.518318
1.65 -0.502837
1.66 -0.49103
1.67 -0.483893
1.68 -0.482139
1.69 -0.486313
1.7 -0.496275
1.71 -0.51163
1.72 -0.531651
1.73 -0.5553
1.74 -0.581287
1.75 -0.608146
1.76 -0.634324
1.77 -0.658276
1.78 -0.678476
1.79 -0.69366
1.8 -0.702954
1.81 -0.705798
1.82 -0.702033
1.83 -0.691925
1.84 -0.676159
1.85 -0.655803
1.86 -0.632256
1.87 -0.607168
1.88 -0.582414
1.89 -0.559862
1.9 -0.541248
1.91 -0.528098
1.92 -0.521621
1.93 -0.52262
1.94 -0.531423
1.95 -0.547847
1.96 -0.571185
1.97 -0.600337
1.98 -0.633443
1.99 -0.668464
2 -0.703162
2.01 -0.73522
2.02 -0.76239
2.03 -0.782647
2.04 -0.794333
2.05 -0.796289
2.06 -0.787787
2.07 -0.769024
2.08 -0.741034
2.09 -0.705401
2.1 -0.664331
2.11 -0.620542
2.12 -0.577115
2.13 -0.537304
2.14 -0.504324
2.15 -0.481206
2.16 -0.470679
2.17 -0.474155
2.18 -0.492332
2.19 -0.524808
2.2 -0.569973
2.21 -0.624965
2.22 -0.68568
2.23 -0.746861
2.24 -0.802248
2.25 -0.844245
2.26 -0.86531
2.27 -0.857776
2.28 -0.814156
2.29 -0.72757
2.3 -0.59212
2.31 -0.403244
2.32 -0.158034
2.33 0.144499
2.34 0.504085
2.35 0.916977
2.36 1.37659
2.37 1.87498
2.38 2.40225
2.39 2.94683
2.4 3.49583
2.41 4.03549
2.42 4.55163
2.43 5.02986
2.44 5.45532
2.45 5.81674
2.46 6.10362
2.47 6.30751
2.48 6.42238
2.49 6.44484
2.5 6.37426
2.51 6.21282
2.52 5.96542
2.53 5.63771
2.54 5.24153
2.55 4.78886
2.56 4.29273
2.57 3.76698
2.58 3.22581
2.59 2.68318
2.6 2.15239
2.61 1.64555
2.62 1.17389
2.63 0.746345
2.64 0.368729
2.65 0.0451084
2.66 -0.222726
2.67 -0.435177
2.68 -0.594674
2.69 -0.705417
2.7 -0.773068
2.71 -0.804231
2.72 -0.806131
2.73 -0.78744
2.74 -0.755804
2.75 -0.718389
2.76 -0.681571
2.77 -0.650695
2.78 -0.6299
2.79 -0.622018
2.8 -0.628547
2.81 -0.65004
2.82 -0.685131
2.83 -0.731707
2.84 -0.786969
2.85 -0.847612
2.86 -0.910082
2.87 -0.970836
2.88 -1.02657
2.89 -1.07445
2.9 -1.11206
2.91 -1.13791
2.92 -1.15155
2.93 -1.15321
2.94 -1.14387
2.95 -1.12518
2.96 -1.09933
2.97 -1.06887
2.98 -1.03655
2.99 -1.00512
3 -0.977312
3.01 -0.955298
3.02 -0.940777
3.03 -0.934875
3.04 -0.938087
3.05 -0.950268
3.06 -0.970668
3.07 -0.998003
3.08 -1.03056
3.09 -1.06633
3.1 -1.10301
3.11 -1.13841
3.12 -1.17055
3.13 -1.19771
3.14 -1.21859
3.15 -1.23235
3.16 -1.23869
3.17 -1.23778
3.18 -1.23022
3.19 -1.21716
3.2 -1.20011
3.21 -1.18062
3.22 -1.1603
3.23 -1.14059
3.24 -1.12272
3.25 -1.10751
3.26 -1.09531
3.27 -1.08595
3.28 -1.07868
3.29 -1.07207
3.3 -1.06429
3.31 -1.05313
3.32 -1.0361
3.33 -1.01064
3.34 -0.974237
3.35 -0.924653
3.36 -0.860057
3.37 -0.778792
3.38 -0.680666
3.39 -0.566139
3.4 -0.436449
3.41 -0.293703
3.42 -0.140836
3.43 0.0184872
3.44 0.180004
3.45 0.33903
3.46 0.490477
3.47 0.629194
3.48 0.750653
3.49 0.850681
3.5 0.925773
3.51 0.973267
3.52 0.991463
3.53 0.979715
3.54 0.938456
3.55 0.869078
3.56 0.773639
3.57 0.656297
3.58 0.521162
3.59 0.372828
3.6 0.216148
3.61 0.0560134
3.62 -0.102875
3.63 -0.256209
3.64 -0.40026
3.65 -0.531672
3.66 -0.648459
3.67 -0.749489
3.68 -0.834437
3.69 -0.903809
3.7 -0.958845
3.71 -1.00139
3.72 -1.03373
3.73 -1.05842
3.74 -1.07806
3.75 -1.09527
3.76 -1.11235
3.77 -1.13109
3.78 -1.15275
3.79 -1.17798
3.8 -1.20684
3.81 -1.23882
3.82 -1.27287
3.83 -1.30752
3.84 -1.34096
3.85 -1.37131
3.86 -1.39676
3.87 -1.41573
3.88 -1.42698
3.89 -1.42978
3.9 -1.42391
3.91 -1.4098
3.92 -1.38843
3.93 -1.36128
3.94 -1.33054
3.95 -1.29859
3.96 -1.26788
3.97 -1.24079
3.98 -1.21941
3.99 -1.20535
4 -1.19957
4.01 -1.20215
4.02 -1.21233
4.03 -1.2281
4.04 -1.24631
4.05 -1.26296
4.06 -1.27316
4.07 -1.27136
4.08 -1.25153
4.09 -1.20746
4.1 -1.13305
4.11 -1.0225
4.12 -0.869791
4.13 -0.672176
4.14 -0.427303
4.15 -0.134421
4.16 0.20547
4.17 0.589527
4.18 1.01305
4.19 1.46954
4.2 1.95088
4.21 2.44759
4.22 2.94828
4.23 3.44132
4.24 3.91487
4.25 4.35715
4.26 4.75688
4.27 5.10367
4.28 5.38844
4.29 5.60367
4.3 5.74272
4.31 5.80166
4.32 5.78065
4.33 5.68077
4.34 5.50526
4.35 5.2594
4.36 4.95022
4.37 4.5863
4.38 4.17739
4.39 3.73402
4.4 3.26704
4.41 2.78846
4.42 2.30897
4.43 1.83859
4.44 1.38632
4.45 0.959919
4.46 0.565754
4.47 0.208642
4.48 -0.108179
4.49 -0.382095
4.5 -0.61365
4.51 -0.804479
4.52 -0.957075
4.53 -1.07488
4.54 -1.16209
4.55 -1.22334
4.56 -1.26356
4.57 -1.28767
4.58 -1.30032
4.59 -1.30601
4.6 -1.30872
4.61 -1.31157
4.62 -1.317
4.63 -1.32665
4.64 -1.34146
4.65 -1.36161
4.66 -1.38667
4.67 -1.4156
4.68 -1.44688
4.69 -1.47845
4.7 -1.50813
4.71 -1.53358
4.72 -1.55239
4.73 -1.56222
4.74 -1.56084
4.75 -1.54624
4.76 -1.51668
4.77 -1.47035
4.78 -1.40644
4.79 -1.32447
4.8 -1.2243
4.81 -1.10622
4.82 -0.971014
4.83 -0.819916
4.84 -0.65464
4.85 -0.477351
4.86 -0.290576
4.87 -0.0974271
4.88 0.0985376
4.89 0.293644
4.9 0.484004
4.91 0.665602
4.92 0.834395
4.93 0.98642
4.94 1.11791
4.95 1.22537
4.96 1.30499
4.97 1.35506
4.98 1.37384
4.99 1.36036
5 1.31448
5.01 1.23689
5.02 1.12913
5.03 0.993605
5.04 0.833464
5.05 0.652201
5.06 0.454696
5.07 0.245955
5.08 0.0310295
5.09 -0.184996
5.1 -0.397192
5.11 -0.600963
5.12 -0.792223
5.13 -0.967535
5.14 -1.12401
5.15 -1.25965
5.16 -1.37399
5.17 -1.46712
5.18 -1.53993
5.19 -1.59409
5.2 -1.63186
5.21 -1.65594
5.22 -1.66929
5.23 -1.67491
5.24 -1.6756
5.25 -1.67404
5.26 -1.67212
5.27 -1.67101
5.28 -1.6711
5.29 -1.67189
5.3 -1.67201
5.31 -1.66925
5.32 -1.66068
5.33 -1.64244
5.34 -1.61053
5.35 -1.56085
5.36 -1.48935
5.37 -1.39227
5.38 -1.26645
5.39 -1.10952
5.4 -0.920142
5.41 -0.698133
5.42 -0.444275
5.43 -0.160948
5.44 0.14735
5.45 0.47548
5.46 0.817197
5.47 1.16534
5.48 1.51209
5.49 1.84922
5.5 2.16841
5.51 2.46151
5.52 2.71974
5.53 2.93717
5.54 3.10819
5.55 3.2285
5.56 3.29522
5.57 3.30705
5.58 3.26423
5.59 3.16853
5.6 3.02319
5.61 2.83189
5.62 2.60104
5.63 2.33757
5.64 2.04853
5.65 1.74125
5.66 1.42306
5.67 1.10103
5.68 0.781746
5.69 0.471078
5.7 0.174256
5.71 -0.104351
5.72 -0.362041
5.73 -0.596855
5.74 -0.807793
5.75 -0.99472
5.76 -1.15825
5.77 -1.29957
5.78 -1.42031
5.79 -1.52236
5.8 -1.60725
5.81 -1.67745
5.82 -1.73465
5.83 -1.78026
5.84 -1.81534
5.85 -1.84057
5.86 -1.85627
5.87 -1.86242
5.88 -1.85876
5.89 -1.84465
5.9 -1.81968
5.91 -1.78353
5.92 -1.73595
5.93 -1.67695
5.94 -1.60689
5.95 -1.52652
5.96 -1.43701
5.97 -1.33997
5.98 -1.23734
5.99 -1.13153
6 -1.02521
6.01 -0.921117
6.02 -0.821966
6.03 -0.730393
6.04 -0.648817
6.05 -0.579338
6.06 -0.523652
6.07 -0.482987
6.08 -0.458536
6.09 -0.449994
6.1 -0.457003
6.11 -0.478755
6.12 -0.514054
6.13 -0.561409
6.14 -0.619126
6.15 -0.685415
6.16 -0.758483
6.17 -0.836693
6.18 -0.918402
6.19 -1.00225
6.2 -1.08718
6.21 -1.17233
6.22 -1.25708
6.23 -1.34091
6.24 -1.42337
6.25 -1.50394
6.26 -1.58195
6.27 -1.65638
6.28 -1.72596
6.29 -1.78889
6.3 -1.84289
6.31 -1.88511
6.32 -1.91221
6.33 -1.92034
6.34 -1.90531
6.35 -1.86267
6.36 -1.78682
6.37 -1.67419
6.38 -1.52083
6.39 -1.3234
6.4 -1.07939
6.41 -0.787388
6.42 -0.447221
6.43 -0.060146
6.44 0.371059
6.45 0.84268
6.46 1.3481
6.47 1.87932
6.48 2.42745
6.49 2.98244
6.5 3.53341
6.51 4.06892
6.52 4.57732
6.53 5.04711
6.54 5.46678
6.55 5.82519
6.56 6.11471
6.57 6.32825
6.58 6.46055
6.59 6.50837
6.6 6.4706
6.61 6.3483
6.62 6.14465
6.63 5.86486
6.64 5.51426
6.65 5.10381
6.66 4.6436
6.67 4.1446
6.68 3.61829
6.69 3.07633
6.7 2.5302
6.71 1.99081
6.72 1.46821
6.73 0.971969
6.74 0.509689
6.75 0.086981
6.76 -0.291867
6.77 -0.624191
6.78 -0.908908
6.79 -1.14641
6.8 -1.33842
6.81 -1.4878
6.82 -1.59803
6.83 -1.67334
6.84 -1.71945
6.85 -1.74145
6.86 -1.74433
6.87 -1.73282
6.88 -1.71126
6.89 -1.68341
6.9 -1.6524
6.91 -1.62073
6.92 -1.59023
6.93 -1.56205
6.94 -1.53673
6.95 -1.51436
6.96 -1.4947
6.97 -1.47728
6.98 -1.46154
6.99 -1.44696
7 -1.43311
7.01 -1.41982
7.02 -1.40717
7.03 -1.39554
7.04 -1.38561
7.05 -1.37832
7.06 -1.37482
7.07 -1.37637
7.08 -1.38425
7.09 -1.39966
7.1 -1.4237
7.11 -1.4572
7.12 -1.50021
7.13 -1.55249
7.14 -1.61319
7.15 -1.68092
7.16 -1.75363
7.17 -1.82871
7.18 -1.90303
7.19 -1.97299
7.2 -2.0343
7.21 -2.08288
7.22 -2.11455
7.23 -2.12522
7.24 -2.11109
7.25 -2.06878
7.26 -1.99551
7.27 -1.88922
7.28 -1.74869
7.29 -1.573
7.3 -1.36314
7.31 -1.12132
7.32 -0.850329
7.33 -0.553918
7.34 -0.236707
7.35 0.0959149
7.36 0.437925
7.37 0.782821
7.38 1.1237
7.39 1.4532
7.4 1.76455
7.41 2.05117
7.42 2.30693
7.43 2.52636
7.44 2.7047
7.45 2.83814
7.46 2.92384
7.47 2.96004
7.48 2.94474
7.49 2.87979
7.5 2.76705
7.51 2.60929
7.52 2.41032
7.53 2.1748
7.54 1.90818
7.55 1.61653
7.56 1.30641
7.57 0.984622
7.58 0.658563
7.59 0.335369
7.6 0.021827
7.61 -0.275633
7.62 -0.551082
7.63 -0.799223
7.64 -1.0155
7.65 -1.19619
7.66 -1.33818
7.67 -1.43896
7.68 -1.49862
7.69 -1.51734
7.7 -1.49629
7.71 -1.43751
7.72 -1.34393
7.73 -1.2192
7.74 -1.06765
7.75 -0.894156
7.76 -0.703746
7.77 -0.502623
7.78 -0.296594
7.79 -0.0914209
7.8 0.107267
7.81 0.294104
7.82 0.464113
7.83 0.612817
7.84 0.736337
7.85 0.830956
7.86 0.894285
7.87 0.92515
7.88 0.922847
7.89 0.887522
7.9 0.820159
7.91 0.722548
7.92 0.597239
7.93 0.44747
7.94 0.27698
7.95 0.0900497
7.96 -0.108056
7.97 -0.31229
7.98 -0.517471
7.99 -0.718416
8 -0.910066
8.01 -1.08761
8.02 -1.24663
8.03 -1.38318
8.04 -1.49312
8.05 -1.57434
8.06 -1.62505
8.07 -1.64417
8.08 -1.63146
8.09 -1.58747
8.1 -1.51359
8.11 -1.41196
8.12 -1.28545
8.13 -1.13727
8.14 -0.971749
8.15 -0.793707
8.16 -0.607977
8.17 -0.419579
8.18 -0.23358
8.19 -0.054971
8.2 0.11147
8.21 0.261298
8.22 0.390361
8.23 0.494693
8.24 0.572049
8.25 0.620422
8.26 0.63858
8.27 0.626093
8.28 0.583347
8.29 0.511535
8.3 0.412624
8.31 0.289305
8.32 0.144486
8.33 -0.0172708
8.34 -0.191462
8.35 -0.373323
8.36 -0.557872
8.37 -0.740041
8.38 -0.914811
8.39 -1.07734
8.4 -1.22311
8.41 -1.34762
8.42 -1.44725
8.43 -1.51948
8.44 -1.56226
8.45 -1.57435
8.46 -1.55537
8.47 -1.50585
8.48 -1.42719
8.49 -1.32166
8.5 -1.19225
8.51 -1.0426
8.52 -0.877816
8.53 -0.702951
8.54 -0.52341
8.55 -0.344809
8.56 -0.172798
8.57 -0.0128855
8.58 0.129747
8.59 0.250422
8.6 0.34438
8.61 0.408964
8.62 0.442202
8.63 0.443111
8.64 0.411886
8.65 0.34994
8.66 0.259917
8.67 0.145651
8.68 0.0120971
8.69 -0.134883
8.7 -0.288107
8.71 -0.439869
8.72 -0.582245
8.73 -0.707155
8.74 -0.80662
8.75 -0.873038
8.76 -0.899449
8.77 -0.879795
8.78 -0.808864
8.79 -0.681978
8.8 -0.498524
8.81 -0.258304
8.82 0.0371349
8.83 0.384491
8.84 0.778746
8.85 1.21327
8.86 1.67995
8.87 2.16943
8.88 2.67135
8.89 3.17391
8.9 3.66555
8.91 4.13472
8.92 4.57018
8.93 4.96135
8.94 5.29858
8.95 5.5735
8.96 5.77921
8.97 5.9093
8.98 5.96038
8.99 5.93229
9 5.82572
9.01 5.64325
9.02 5.38926
9.03 5.06974
9.04 4.69209
9.05 4.26489
9.06 3.79743
9.07 3.29954
9.08 2.78252
9.09 2.25657
9.1 1.73152
9.11 1.21652
9.12 0.719848
9.13 0.248681
9.14 -0.19104
9.15 -0.594722
9.16 -0.958143
9.17 -1.28029
9.18 -1.56103
9.19 -1.80125
9.2 -2.00295
9.21 -2.16901
9.22 -2.30307
9.23 -2.40927
9.24 -2.49203
9.25 -2.55567
9.26 -2.60477
9.27 -2.64366
9.28 -2.67587
9.29 -2.70435
9.3 -2.73128
9.31 -2.75811
9.32 -2.78544
9.33 -2.8131
9.34 -2.84014
9.35 -2.86483
9.36 -2.88491
9.37 -2.89768
9.38 -2.90016
9.39 -2.88916
9.4 -2.86152
9.41 -2.81422
9.42 -2.74452
9.43 -2.65011
9.44 -2.52856
9.45 -2.37926
9.46 -2.20204
9.47 -1.99737
9.48 -1.76654
9.49 -1.51165
9.5 -1.23558
9.51 -0.941942
9.52 -0.635021
9.53 -0.319626
9.54 -0.00132262
9.55 0.314101
9.56 0.62083
9.57 0.91303
9.58 1.18501
9.59 1.43137
9.6 1.64715
9.61 1.82798
9.62 1.97002
9.63 2.06944
9.64 2.1254
9.65 2.13704
9.66 2.10451
9.67 2.02898
9.68 1.9126
9.69 1.75849
9.7 1.57061
9.71 1.35366
9.72 1.11256
9.73 0.853758
9.74 0.583478
9.75 0.307892
9.76 0.0330633
9.77 -0.235227
9.78 -0.491658
9.79 -0.731523
9.8 -0.950868
9.81 -1.14624
9.82 -1.31538
9.83 -1.45757
9.84 -1.57274
9.85 -1.66173
9.86 -1.72625
9.87 -1.76877
9.88 -1.79238
9.89 -1.80062
9.9 -1.79729
9.91 -1.78626
9.92 -1.7716
9.93 -1.75675
9.94 -1.74466
9.95 -1.73763
9.96 -1.7372
9.97 -1.74408
9.98 -1.7581
9.99 -1.77818
10 -1.80247
10.01 -1.82807
10.02 -1.85164
10.03 -1.86936
10.04 -1.87719
10.05 -1.871
10.06 -1.84684
10.07 -1.80109
10.08 -1.73073
10.09 -1.6331
10.1 -1.50672
10.11 -1.35179
10.12 -1.1692
10.13 -0.96095
10.14 -0.730142
10.15 -0.480922
10.16 -0.218343
10.17 0.0517879
10.18 0.323093
10.19 0.588507
10.2 0.841231
10.21 1.07471
10.22 1.28282
10.23 1.46017
10.24 1.60222
10.25 1.70553
10.26 1.76786
10.27 1.78828
10.28 1.76629
10.29 1.70442
10.3 1.60607
10.31 1.47546
10.32 1.31778
10.33 1.13894
10.34 0.945388
10.35 0.743806
10.36 0.540899
10.37 0.343254
10.38 0.157102
10.39 -0.0125093
10.4 -0.161369
10.41 -0.286329
10.42 -0.385388
10.43 -0.45774
10.44 -0.50375
10.45 -0.524895
10.46 -0.523599
10.47 -0.502851
10.48 -0.46728
10.49 -0.421296
10.5 -0.369468
10.51 -0.316281
10.52 -0.265903
10.53 -0.221965
10.54 -0.18737
10.55 -0.164136
10.56 -0.153565
10.57 -0.15536
10.58 -0.16821
10.59 -0.189871
10.6 -0.217175
10.61 -0.246174
10.62 -0.272326
10.63 -0.290706
10.64 -0.296254
10.65 -0.283738
10.66 -0.24828
10.67 -0.186301
10.68 -0.0947706
10.69 0.0282991
10.7 0.183707
10.71 0.370968
10.72 0.588273
10.73 0.832499
10.74 1.09932
10.75 1.38344
10.76 1.67772
10.77 1.97493
10.78 2.2674
10.79 2.54726
10.8 2.80679
10.81 3.03862
10.82 3.23607
10.83 3.39335
10.84 3.50474
10.85 3.56745
10.86 3.58004
10.87 3.5422
10.88 3.45506
10.89 3.32122
10.9 3.14454
10.91 2.93004
10.92 2.68369
10.93 2.41195
10.94 2.12214
10.95 1.82201
10.96 1.5187
10.97 1.21899
10.98 0.929047
10.99 0.654219
11 0.39891
11.01 0.166456
11.02 -0.0408767
11.03 -0.221294
11.04 -0.375582
11.05 -0.504775
11.06 -0.610728
11.07 -0.695942
11.08 -0.763368
11.09 -0.816202
11.1 -0.857679
11.11 -0.890871
11.12 -0.918442
11.13 -0.942757
11.14 -0.96542
11.15 -0.987301
11.16 -1.00856
11.17 -1.02865
11.18 -1.04641
11.19 -1.06014
11.2 -1.06776
11.21 -1.06679
11.22 -1.05469
11.23 -1.02935
11.24 -0.988851
11.25 -0.931755
11.26 -0.857231
11.27 -0.765172
11.28 -0.656261
11.29 -0.531989
11.3 -0.394636
11.31 -0.247078
11.32 -0.093412
11.33 0.0621655
11.34 0.215146
11.35 0.360897
11.36 0.494855
11.37 0.61272
11.38 0.710643
11.39 0.78539
11.4 0.833903
11.41 0.854864
11.42 0.847902
11.43 0.813361
11.44 0.752504
11.45 0.667441
11.46 0.561029
11.47 0.436731
11.48 0.298458
11.49 0.150334
11.5 -0.00323061
11.51 -0.157899
11.52 -0.309805
11.53 -0.455513
11.54 -0.592137
11.55 -0.717421
11.56 -0.829792
11.57 -0.928367
11.58 -1.01292
11.59 -1.08348
11.6 -1.14141
11.61 -1.18804
11.62 -1.22493
11.63 -1.25379
11.64 -1.27627
11.65 -1.29387
11.66 -1.30783
11.67 -1.31901
11.68 -1.32782
11.69 -1.33425
11.7 -1.33785
11.71 -1.33772
11.72 -1.33262
11.73 -1.32108
11.74 -1.30149
11.75 -1.27226
11.76 -1.2319
11.77 -1.17904
11.78 -1.11269
11.79 -1.03278
11.8 -0.93951
11.81 -0.833724
11.82 -0.71686
11.83 -0.590953
11.84 -0.458584
11.85 -0.322798
11.86 -0.187007
11.87 -0.0550877
11.88 0.0692069
11.89 0.182191
11.9 0.280383
11.91 0.360636
11.92 0.420259
11.93 0.457107
11.94 0.469658
11.95 0.457054
11.96 0.418617
11.97 0.355157
11.98 0.268096
11.99 0.159161
12 0.0305428
12.01 -0.115193
12.02 -0.275217
12.03 -0.446532
12.04 -0.626081
12.05 -0.810849
12.06 -0.997805
12.07 -1.18409
12.08 -1.36713
12.09 -1.54459
12.1 -1.71432
12.11 -1.87437
12.12 -2.02296
12.13 -2.15842
12.14 -2.27914
12.15 -2.38303
12.16 -2.46897
12.17 -2.53537
12.18 -2.5806
12.19 -2.60303
12.2 -2.60102
12.21 -2.573
12.22 -2.5175
12.23 -2.43327
12.24 -2.31873
12.25 -2.17356
12.26 -1.99801
12.27 -1.79258
12.28 -1.55839
12.29 -1.29729
12.3 -1.01181
12.31 -0.705221
12.32 -0.381489
12.33 -0.0451405
12.34 0.298516
12.35 0.6436
12.36 0.984211
12.37 1.31432
12.38 1.62795
12.39 1.91931
12.4 2.18304
12.41 2.41427
12.42 2.60884
12.43 2.76214
12.44 2.87285
12.45 2.9396
12.46 2.96198
12.47 2.94056
12.48 2.87687
12.49 2.77328
12.5 2.63297
12.51 2.45976
12.52 2.25758
12.53 2.03163
12.54 1.78726
12.55 1.52959
12.56 1.26372
12.57 0.994611
12.58 0.72701
12.59 0.465345
12.6 0.213694
12.61 -0.0240963
12.62 -0.244421
12.63 -0.44472
12.64 -0.622535
12.65 -0.775764
12.66 -0.90264
12.67 -1.0017
12.68 -1.07175
12.69 -1.11189
12.7 -1.12144
12.71 -1.09911
12.72 -1.04563
12.73 -0.961252
12.74 -0.846489
12.75 -0.702241
12.76 -0.52981
12.77 -0.330938
12.78 -0.107832
12.79 0.136818
12.8 0.400109
12.81 0.678076
12.82 0.966401
12.83 1.26061
12.84 1.55594
12.85 1.84745
12.86 2.13012
12.87 2.399
12.88 2.64932
12.89 2.87639
12.9 3.07575
12.91 3.24454
12.92 3.38012
12.93 3.4806
12.94 3.54496
12.95 3.573
12.96 3.56541
12.97 3.52367
12.98 3.45003
12.99 3.34671
13 3.21811
13.01 3.06821
13.02 2.90118
13.03 2.72133
13.04 2.53292
13.05 2.34
13.06 2.14633
13.07 1.95524
13.08 1.76967
13.09 1.59189
13.1 1.42338
13.11 1.26507
13.12 1.11731
13.13 0.979896
13.14 0.852147
13.15 0.733003
13.16 0.621114
13.17 0.514983
13.18 0.412994
13.19 0.313457
13.2 0.214936
13.21 0.116204
13.22 0.0162999
13.23 -0.085433
13.24 -0.189328
13.25 -0.295399
13.26 -0.403361
13.27 -0.512688
13.28 -0.622563
13.29 -0.732091
13.3 -0.840326
13.31 -0.946337
13.32 -1.04928
13.33 -1.14846
13.34 -1.2434
13.35 -1.33385
13.36 -1.41978
13.37 -1.50153
13.38 -1.57978
13.39 -1.65535
13.4 -1.72929
13.41 -1.80276
13.42 -1.877
13.43 -1.95326
13.44 -2.03268
13.45 -2.11631
13.46 -2.20501
13.47 -2.29912
13.48 -2.39872
13.49 -2.5035
13.5 -2.61271
13.51 -2.72518
13.52 -2.83928
13.53 -2.953
13.54 -3.06397
13.55 -3.16923
13.56 -3.26586
13.57 -3.35075
13.58 -3.42067
13.59 -3.47244
13.6 -3.50296
13.61 -3.50935
13.62 -3.48902
13.63 -3.43976
13.64 -3.35927
13.65 -3.24643
