TEST_blank-00000.tif: 2-theta Scan
2-Theta Angle (Degrees)

       1465
 0.0000000E+00  0.0000000E+00
 0.0000000E+00  0.0000000E+00
 0.0000000E+00  0.0000000E+00
 0.0000000E+00  0.0000000E+00
 0.0000000E+00  0.0000000E+00
 0.0000000E+00  0.0000000E+00
 0.0000000E+00  0.0000000E+00
 0.0000000E+00  0.0000000E+00
 0.0000000E+00  0.0000000E+00
 0.0000000E+00  0.0000000E+00
 0.0000000E+00  0.0000000E+00
 0.0000000E+00  0.0000000E+00
 0.0000000E+00  0.0000000E+00
 0.0000000E+00  0.0000000E+00
 0.0000000E+00  0.0000000E+00
 0.0000000E+00  0.0000000E+00
 0.0000000E+00  0.0000000E+00
 0.0000000E+00  0.0000000E+00
 0.0000000E+00  0.0000000E+00
 0.0000000E+00  0.0000000E+00
 0.0000000E+00  0.0000000E+00
 0.0000000E+00  0.0000000E+00
 0.0000000E+00  0.0000000E+00
 0.0000000E+00  0.0000000E+00
 0.0000000E+00  0.0000000E+00
 0.0000000E+00  0.0000000E+00
 0.0000000E+00  0.0000000E+00
 0.0000000E+00  0.0000000E+00
 0.0000000E+00  0.0000000E+00
 0.0000000E+00  0.0000000E+00
 0.0000000E+00  0.0000000E+00
 0.0000000E+00  0.0000000E+00
 0.0000000E+00  0.0000000E+00
 0.0000000E+00  0.0000000E+00
 0.0000000E+00  0.0000000E+00
 0.0000000E+00  0.0000000E+00
 0.0000000E+00  0.0000000E+00
 0.0000000E+00  0.0000000E+00
 0.0000000E+00  0.0000000E+00
 0.0000000E+00  0.0000000E+00
 0.0000000E+00  0.0000000E+00
 0.0000000E+00  0.0000000E+00
 0.0000000E+00  0.0000000E+00
 0.0000000E+00  0.0000000E+00
 0.0000000E+00  0.0000000E+00
 0.0000000E+00  0.0000000E+00
 0.0000000E+00  0.0000000E+00
 0.0000000E+00  0.0000000E+00
 0.0000000E+00  0.0000000E+00
 0.0000000E+00  0.0000000E+00
 0.0000000E+00  0.0000000E+00
 0.0000000E+00  0.0000000E+00
 0.0000000E+00  0.0000000E+00
 0.0000000E+00  0.0000000E+00
 0.0000000E+00  0.0000000E+00
 0.0000000E+00  0.0000000E+00
 0.0000000E+00  0.0000000E+00
 0.0000000E+00  0.0000000E+00
 0.0000000E+00  0.0000000E+00
 0.0000000E+00  0.0000000E+00
 0.0000000E+00  0.0000000E+00
 0.0000000E+00  0.0000000E+00
 0.0000000E+00  0.0000000E+00
 0.0000000E+00  0.0000000E+00
 0.0000000E+00  0.0000000E+00
 0.0000000E+00  0.0000000E+00
 0.0000000E+00  0.0000000E+00
 0.0000000E+00  0.0000000E+00
 0.0000000E+00  0.0000000E+00
 0.0000000E+00  0.0000000E+00
 0.0000000E+00  0.0000000E+00
 0.0000000E+00  0.0000000E+00
 0.0000000E+00  0.0000000E+00
 0.0000000E+00  0.0000000E+00
 0.0000000E+00  0.0000000E+00
 0.0000000E+00  0.0000000E+00
 0.0000000E+00  0.0000000E+00
 0.0000000E+00  0.0000000E+00
 0.0000000E+00  0.0000000E+00
 0.0000000E+00  0.0000000E+00
 0.0000000E+00  0.0000000E+00
 0.0000000E+00  0.0000000E+00
 0.0000000E+00  0.0000000E+00
 0.0000000E+00  0.0000000E+00
 0.0000000E+00  0.0000000E+00
 0.0000000E+00  0.0000000E+00
 0.0000000E+00  0.0000000E+00
 0.0000000E+00  0.0000000E+00
 0.0000000E+00  0.0000000E+00
 0.0000000E+00  0.0000000E+00
 0.0000000E+00  0.0000000E+00
 0.0000000E+00  0.0000000E+00
 0.0000000E+00  0.0000000E+00
 0.0000000E+00  0.0000000E+00
 0.0000000E+00  0.0000000E+00
 0.0000000E+00  0.0000000E+00
 0.0000000E+00  0.0000000E+00
 0.0000000E+00  0.0000000E+00
 0.0000000E+00  0.0000000E+00
 0.0000000E+00  0.0000000E+00
 0.0000000E+00  0.0000000E+00
 0.0000000E+00  0.0000000E+00
 0.0000000E+00  0.0000000E+00
 0.0000000E+00  0.0000000E+00
 0.0000000E+00  0.0000000E+00
 0.0000000E+00  0.0000000E+00
 0.0000000E+00  0.0000000E+00
 0.0000000E+00  0.0000000E+00
 0.0000000E+00  0.0000000E+00
 0.0000000E+00  0.0000000E+00
 0.0000000E+00  0.0000000E+00
 0.0000000E+00  0.0000000E+00
 0.0000000E+00  0.0000000E+00
 0.0000000E+00  0.0000000E+00
 0.0000000E+00  0.0000000E+00
 0.0000000E+00  0.0000000E+00
 0.0000000E+00  0.0000000E+00
 0.0000000E+00  0.0000000E+00
 0.0000000E+00  0.0000000E+00
 0.0000000E+00  0.0000000E+00
 0.0000000E+00  0.0000000E+00
 0.0000000E+00  0.0000000E+00
 0.0000000E+00  0.0000000E+00
 0.0000000E+00  0.0000000E+00
 0.0000000E+00  0.0000000E+00
 0.0000000E+00  0.0000000E+00
 0.0000000E+00  0.0000000E+00
 0.0000000E+00  0.0000000E+00
 0.0000000E+00  0.0000000E+00
 0.0000000E+00  0.0000000E+00
 0.0000000E+00  0.0000000E+00
 0.0000000E+00  0.0000000E+00
 0.0000000E+00  0.0000000E+00
 0.0000000E+00  0.0000000E+00
 0.0000000E+00  0.0000000E+00
 0.0000000E+00  0.0000000E+00
 0.0000000E+00  0.0000000E+00
 0.0000000E+00  0.0000000E+00
 0.0000000E+00  0.0000000E+00
 0.0000000E+00  0.0000000E+00
 0.0000000E+00  0.0000000E+00
 0.0000000E+00  0.0000000E+00
 0.0000000E+00  0.0000000E+00
 0.0000000E+00  0.0000000E+00
 0.0000000E+00  0.0000000E+00
 0.0000000E+00  0.0000000E+00
 0.0000000E+00  0.0000000E+00
 0.0000000E+00  0.0000000E+00
 0.0000000E+00  0.0000000E+00
 0.0000000E+00  0.0000000E+00
 0.0000000E+00  0.0000000E+00
 0.0000000E+00  0.0000000E+00
 0.0000000E+00  0.0000000E+00
 0.0000000E+00  0.0000000E+00
 0.0000000E+00  0.0000000E+00
 0.0000000E+00  0.0000000E+00
 0.0000000E+00  0.0000000E+00
 0.0000000E+00  0.0000000E+00
 0.0000000E+00  0.0000000E+00
 0.0000000E+00  0.0000000E+00
 0.0000000E+00  0.0000000E+00
 0.0000000E+00  0.0000000E+00
 0.0000000E+00  0.0000000E+00
 0.0000000E+00  0.0000000E+00
 0.0000000E+00  0.0000000E+00
 0.0000000E+00  0.0000000E+00
 0.0000000E+00  0.0000000E+00
 0.0000000E+00  0.0000000E+00
 0.0000000E+00  0.0000000E+00
 0.0000000E+00  0.0000000E+00
 0.0000000E+00  0.0000000E+00
 0.0000000E+00  0.0000000E+00
 0.0000000E+00  0.0000000E+00
 0.0000000E+00  0.0000000E+00
 0.0000000E+00  0.0000000E+00
 0.0000000E+00  0.0000000E+00
 0.0000000E+00  0.0000000E+00
 0.0000000E+00  0.0000000E+00
 0.0000000E+00  0.0000000E+00
 0.0000000E+00  0.0000000E+00
 0.0000000E+00  0.0000000E+00
 0.0000000E+00  0.0000000E+00
 0.0000000E+00  0.0000000E+00
 0.0000000E+00  0.0000000E+00
 0.0000000E+00  0.0000000E+00
 0.0000000E+00  0.0000000E+00
 0.0000000E+00  0.0000000E+00
 0.0000000E+00  0.0000000E+00
 0.0000000E+00  0.0000000E+00
 0.0000000E+00  0.0000000E+00
 0.0000000E+00  0.0000000E+00
 0.0000000E+00  0.0000000E+00
 0.0000000E+00  0.0000000E+00
 0.0000000E+00  0.0000000E+00
 0.0000000E+00  0.0000000E+00
 0.0000000E+00  0.0000000E+00
 0.0000000E+00  0.0000000E+00
 0.0000000E+00  0.0000000E+00
 0.0000000E+00  0.0000000E+00
 0.0000000E+00  0.0000000E+00
 0.0000000E+00  0.0000000E+00
 0.0000000E+00  0.0000000E+00
 0.0000000E+00  0.0000000E+00
 0.0000000E+00  0.0000000E+00
 0.0000000E+00  0.0000000E+00
 0.0000000E+00  0.0000000E+00
 0.0000000E+00  0.0000000E+00
 0.0000000E+00  0.0000000E+00
 0.0000000E+00  0.0000000E+00
 0.0000000E+00  0.0000000E+00
 0.0000000E+00  0.0000000E+00
 0.0000000E+00  0.0000000E+00
 0.0000000E+00  0.0000000E+00
 0.0000000E+00  0.0000000E+00
 0.0000000E+00  0.0000000E+00
 0.0000000E+00  0.0000000E+00
 0.0000000E+00  0.0000000E+00
 0.0000000E+00  0.0000000E+00
 0.0000000E+00  0.0000000E+00
 0.0000000E+00  0.0000000E+00
 0.0000000E+00  0.0000000E+00
 0.0000000E+00  0.0000000E+00
 0.0000000E+00  0.0000000E+00
 0.0000000E+00  0.0000000E+00
 0.0000000E+00  0.0000000E+00
 0.0000000E+00  0.0000000E+00
 0.0000000E+00  0.0000000E+00
 0.0000000E+00  0.0000000E+00
 0.0000000E+00  0.0000000E+00
 0.0000000E+00  0.0000000E+00
 0.0000000E+00  0.0000000E+00
 0.0000000E+00  0.0000000E+00
 0.0000000E+00  0.0000000E+00
 0.0000000E+00  0.0000000E+00
 0.0000000E+00  0.0000000E+00
 0.0000000E+00  0.0000000E+00
 0.0000000E+00  0.0000000E+00
 0.0000000E+00  0.0000000E+00
 0.0000000E+00  0.0000000E+00
 0.0000000E+00  0.0000000E+00
 0.0000000E+00  0.0000000E+00
 0.0000000E+00  0.0000000E+00
 0.0000000E+00  0.0000000E+00
 0.0000000E+00  0.0000000E+00
 0.0000000E+00  0.0000000E+00
 0.0000000E+00  0.0000000E+00
 0.0000000E+00  0.0000000E+00
 0.0000000E+00  0.0000000E+00
 0.0000000E+00  0.0000000E+00
 0.0000000E+00  0.0000000E+00
 0.0000000E+00  0.0000000E+00
 0.0000000E+00  0.0000000E+00
 0.0000000E+00  0.0000000E+00
 0.0000000E+00  0.0000000E+00
 0.0000000E+00  0.0000000E+00
 0.0000000E+00  0.0000000E+00
 0.0000000E+00  0.0000000E+00
 0.0000000E+00  0.0000000E+00
 0.0000000E+00  0.0000000E+00
 0.0000000E+00  0.0000000E+00
 0.0000000E+00  0.0000000E+00
 0.0000000E+00  0.0000000E+00
 0.0000000E+00  0.0000000E+00
 0.0000000E+00  0.0000000E+00
 0.0000000E+00  0.0000000E+00
 0.0000000E+00  0.0000000E+00
 0.0000000E+00  0.0000000E+00
 0.0000000E+00  0.0000000E+00
 0.0000000E+00  0.0000000E+00
 0.0000000E+00  0.0000000E+00
 0.0000000E+00  0.0000000E+00
 0.0000000E+00  0.0000000E+00
 0.0000000E+00  0.0000000E+00
 0.0000000E+00  0.0000000E+00
 0.0000000E+00  0.0000000E+00
 0.0000000E+00  0.0000000E+00
 0.0000000E+00  0.0000000E+00
 0.0000000E+00  0.0000000E+00
 0.0000000E+00  0.0000000E+00
 0.0000000E+00  0.0000000E+00
 0.0000000E+00  0.0000000E+00
 0.0000000E+00  0.0000000E+00
 0.0000000E+00  0.0000000E+00
 0.0000000E+00  0.0000000E+00
 0.0000000E+00  0.0000000E+00
 0.0000000E+00  0.0000000E+00
 0.0000000E+00  0.0000000E+00
 0.0000000E+00  0.0000000E+00
 0.0000000E+00  0.0000000E+00
 0.0000000E+00  0.0000000E+00
 0.0000000E+00  0.0000000E+00
 0.0000000E+00  0.0000000E+00
 0.0000000E+00  0.0000000E+00
 0.0000000E+00  0.0000000E+00
 0.0000000E+00  0.0000000E+00
 0.0000000E+00  0.0000000E+00
 0.0000000E+00  0.0000000E+00
 0.0000000E+00  0.0000000E+00
 0.0000000E+00  0.0000000E+00
 0.0000000E+00  0.0000000E+00
 0.0000000E+00  0.0000000E+00
 0.0000000E+00  0.0000000E+00
 0.0000000E+00  0.0000000E+00
 0.0000000E+00  0.0000000E+00
 0.0000000E+00  0.0000000E+00
 0.0000000E+00  0.0000000E+00
 0.0000000E+00  0.0000000E+00
 0.0000000E+00  0.0000000E+00
 0.0000000E+00  0.0000000E+00
 0.0000000E+00  0.0000000E+00
 0.0000000E+00  0.0000000E+00
 0.0000000E+00  0.0000000E+00
 0.0000000E+00  0.0000000E+00
 0.0000000E+00  0.0000000E+00
 0.0000000E+00  0.0000000E+00
 0.0000000E+00  0.0000000E+00
 0.0000000E+00  0.0000000E+00
 0.0000000E+00  0.0000000E+00
 0.0000000E+00  0.0000000E+00
 0.0000000E+00  0.0000000E+00
 0.0000000E+00  0.0000000E+00
 0.0000000E+00  0.0000000E+00
 0.0000000E+00  0.0000000E+00
 0.0000000E+00  0.0000000E+00
 0.0000000E+00  0.0000000E+00
 0.0000000E+00  0.0000000E+00
 0.0000000E+00  0.0000000E+00
 0.0000000E+00  0.0000000E+00
 0.0000000E+00  0.0000000E+00
 0.0000000E+00  0.0000000E+00
 0.0000000E+00  0.0000000E+00
 0.0000000E+00  0.0000000E+00
 0.0000000E+00  0.0000000E+00
 0.0000000E+00  0.0000000E+00
 0.0000000E+00  0.0000000E+00
 0.0000000E+00  0.0000000E+00
 0.0000000E+00  0.0000000E+00
 0.0000000E+00  0.0000000E+00
 0.0000000E+00  0.0000000E+00
 0.0000000E+00  0.0000000E+00
 0.0000000E+00  0.0000000E+00
 0.0000000E+00  0.0000000E+00
 0.0000000E+00  0.0000000E+00
 0.0000000E+00  0.0000000E+00
 0.0000000E+00  0.0000000E+00
 0.0000000E+00  0.0000000E+00
 0.0000000E+00  0.0000000E+00
 0.0000000E+00  0.0000000E+00
 0.0000000E+00  0.0000000E+00
 0.0000000E+00  0.0000000E+00
 0.0000000E+00  0.0000000E+00
 0.0000000E+00  0.0000000E+00
 0.0000000E+00  0.0000000E+00
 0.0000000E+00  0.0000000E+00
 0.0000000E+00  0.0000000E+00
 0.0000000E+00  0.0000000E+00
 0.0000000E+00  0.0000000E+00
 0.0000000E+00  0.0000000E+00
 0.0000000E+00  0.0000000E+00
 0.0000000E+00  0.0000000E+00
 0.0000000E+00  0.0000000E+00
 0.0000000E+00  0.0000000E+00
 0.0000000E+00  0.0000000E+00
 0.0000000E+00  0.0000000E+00
 0.0000000E+00  0.0000000E+00
 0.0000000E+00  0.0000000E+00
 0.0000000E+00  0.0000000E+00
 0.0000000E+00  0.0000000E+00
 0.0000000E+00  0.0000000E+00
 0.0000000E+00  0.0000000E+00
 0.0000000E+00  0.0000000E+00
 0.0000000E+00  0.0000000E+00
 0.0000000E+00  0.0000000E+00
 0.0000000E+00  0.0000000E+00
 0.0000000E+00  0.0000000E+00
 0.0000000E+00  0.0000000E+00
 0.0000000E+00  0.0000000E+00
 0.0000000E+00  0.0000000E+00
 0.0000000E+00  0.0000000E+00
 0.0000000E+00  0.0000000E+00
 0.0000000E+00  0.0000000E+00
 0.0000000E+00  0.0000000E+00
 0.0000000E+00  0.0000000E+00
 0.0000000E+00  0.0000000E+00
 0.0000000E+00  0.0000000E+00
 0.0000000E+00  0.0000000E+00
 0.0000000E+00  0.0000000E+00
 0.0000000E+00  0.0000000E+00
 0.0000000E+00  0.0000000E+00
 0.0000000E+00  0.0000000E+00
 0.0000000E+00  0.0000000E+00
 0.0000000E+00  0.0000000E+00
 0.0000000E+00  0.0000000E+00
 0.0000000E+00  0.0000000E+00
 0.0000000E+00  0.0000000E+00
 0.0000000E+00  0.0000000E+00
 0.0000000E+00  0.0000000E+00
 0.0000000E+00  0.0000000E+00
 0.0000000E+00  0.0000000E+00
 0.0000000E+00  0.0000000E+00
 0.0000000E+00  0.0000000E+00
 0.0000000E+00  0.0000000E+00
 0.0000000E+00  0.0000000E+00
 0.0000000E+00  0.0000000E+00
 0.0000000E+00  0.0000000E+00
 0.0000000E+00  0.0000000E+00
 0.0000000E+00  0.0000000E+00
 0.0000000E+00  0.0000000E+00
 0.0000000E+00  0.0000000E+00
 0.0000000E+00  0.0000000E+00
 0.0000000E+00  0.0000000E+00
 0.0000000E+00  0.0000000E+00
 0.0000000E+00  0.0000000E+00
 0.0000000E+00  0.0000000E+00
 0.0000000E+00  0.0000000E+00
 0.0000000E+00  0.0000000E+00
 0.0000000E+00  0.0000000E+00
 0.0000000E+00  0.0000000E+00
 0.0000000E+00  0.0000000E+00
 0.0000000E+00  0.0000000E+00
 0.0000000E+00  0.0000000E+00
 0.0000000E+00  0.0000000E+00
 0.0000000E+00  0.0000000E+00
 0.0000000E+00  0.0000000E+00
 0.0000000E+00  0.0000000E+00
 0.0000000E+00  0.0000000E+00
 0.0000000E+00  0.0000000E+00
 0.0000000E+00  0.0000000E+00
 0.0000000E+00  0.0000000E+00
 0.0000000E+00  0.0000000E+00
 0.0000000E+00  0.0000000E+00
 0.0000000E+00  0.0000000E+00
 0.0000000E+00  0.0000000E+00
 0.0000000E+00  0.0000000E+00
 0.0000000E+00  0.0000000E+00
 0.0000000E+00  0.0000000E+00
 0.0000000E+00  0.0000000E+00
 0.0000000E+00  0.0000000E+00
 0.0000000E+00  0.0000000E+00
 0.0000000E+00  0.0000000E+00
 0.0000000E+00  0.0000000E+00
 0.0000000E+00  0.0000000E+00
 0.0000000E+00  0.0000000E+00
 0.0000000E+00  0.0000000E+00
 0.0000000E+00  0.0000000E+00
 0.0000000E+00  0.0000000E+00
 0.0000000E+00  0.0000000E+00
 0.0000000E+00  0.0000000E+00
 0.0000000E+00  0.0000000E+00
 0.0000000E+00  0.0000000E+00
 0.0000000E+00  0.0000000E+00
 0.0000000E+00  0.0000000E+00
 0.0000000E+00  0.0000000E+00
 0.0000000E+00  0.0000000E+00
 0.0000000E+00  0.0000000E+00
 0.0000000E+00  0.0000000E+00
 0.0000000E+00  0.0000000E+00
 0.0000000E+00  0.0000000E+00
 0.0000000E+00  0.0000000E+00
 0.0000000E+00  0.0000000E+00
 0.0000000E+00  0.0000000E+00
 0.0000000E+00  0.0000000E+00
 0.0000000E+00  0.0000000E+00
 0.0000000E+00  0.0000000E+00
 0.0000000E+00  0.0000000E+00
 0.0000000E+00  0.0000000E+00
 0.0000000E+00  0.0000000E+00
 0.0000000E+00  0.0000000E+00
 0.0000000E+00  0.0000000E+00
 0.0000000E+00  0.0000000E+00
 0.0000000E+00  0.0000000E+00
 0.0000000E+00  0.0000000E+00
 0.0000000E+00  0.0000000E+00
 0.0000000E+00  0.0000000E+00
 0.0000000E+00  0.0000000E+00
 0.0000000E+00  0.0000000E+00
 0.0000000E+00  0.0000000E+00
 0.0000000E+00  0.0000000E+00
 0.0000000E+00  0.0000000E+00
 0.0000000E+00  0.0000000E+00
 0.0000000E+00  0.0000000E+00
 0.0000000E+00  0.0000000E+00
 0.0000000E+00  0.0000000E+00
 0.0000000E+00  0.0000000E+00
 0.0000000E+00  0.0000000E+00
 0.0000000E+00  0.0000000E+00
 0.0000000E+00  0.0000000E+00
 0.0000000E+00  0.0000000E+00
 0.0000000E+00  0.0000000E+00
 0.0000000E+00  0.0000000E+00
 0.0000000E+00  0.0000000E+00
 0.0000000E+00  0.0000000E+00
 0.0000000E+00  0.0000000E+00
 0.0000000E+00  0.0000000E+00
 0.0000000E+00  0.0000000E+00
 0.0000000E+00  0.0000000E+00
 0.0000000E+00  0.0000000E+00
 0.0000000E+00  0.0000000E+00
 0.0000000E+00  0.0000000E+00
 0.0000000E+00  0.0000000E+00
 0.0000000E+00  0.0000000E+00
 0.0000000E+00  0.0000000E+00
 0.0000000E+00  0.0000000E+00
 0.0000000E+00  0.0000000E+00
 0.0000000E+00  0.0000000E+00
 0.0000000E+00  0.0000000E+00
 0.0000000E+00  0.0000000E+00
 0.0000000E+00  0.0000000E+00
 0.0000000E+00  0.0000000E+00
 0.0000000E+00  0.0000000E+00
 0.0000000E+00  0.0000000E+00
 0.0000000E+00  0.0000000E+00
 0.0000000E+00  0.0000000E+00
 0.0000000E+00  0.0000000E+00
 0.0000000E+00  0.0000000E+00
 0.0000000E+00  0.0000000E+00
 0.0000000E+00  0.0000000E+00
 0.0000000E+00  0.0000000E+00
 0.0000000E+00  0.0000000E+00
 0.0000000E+00  0.0000000E+00
 0.0000000E+00  0.0000000E+00
 0.0000000E+00  0.0000000E+00
 0.0000000E+00  0.0000000E+00
 0.0000000E+00  0.0000000E+00
 0.0000000E+00  0.0000000E+00
 0.0000000E+00  0.0000000E+00
 0.0000000E+00  0.0000000E+00
 0.0000000E+00  0.0000000E+00
 0.0000000E+00  0.0000000E+00
 0.0000000E+00  0.0000000E+00
 0.0000000E+00  0.0000000E+00
 0.0000000E+00  0.0000000E+00
 0.0000000E+00  0.0000000E+00
 0.0000000E+00  0.0000000E+00
 0.0000000E+00  0.0000000E+00
 0.0000000E+00  0.0000000E+00
 0.0000000E+00  0.0000000E+00
 0.0000000E+00  0.0000000E+00
 0.0000000E+00  0.0000000E+00
 0.0000000E+00  0.0000000E+00
 0.0000000E+00  0.0000000E+00
 0.0000000E+00  0.0000000E+00
 0.0000000E+00  0.0000000E+00
 0.0000000E+00  0.0000000E+00
 0.0000000E+00  0.0000000E+00
 0.0000000E+00  0.0000000E+00
 0.0000000E+00  0.0000000E+00
 0.0000000E+00  0.0000000E+00
 0.0000000E+00  0.0000000E+00
 0.0000000E+00  0.0000000E+00
 0.0000000E+00  0.0000000E+00
 0.0000000E+00  0.0000000E+00
 0.0000000E+00  0.0000000E+00
 0.0000000E+00  0.0000000E+00
 0.0000000E+00  0.0000000E+00
 0.0000000E+00  0.0000000E+00
 0.0000000E+00  0.0000000E+00
 0.0000000E+00  0.0000000E+00
 0.0000000E+00  0.0000000E+00
 0.0000000E+00  0.0000000E+00
 0.0000000E+00  0.0000000E+00
 0.0000000E+00  0.0000000E+00
 0.0000000E+00  0.0000000E+00
 0.0000000E+00  0.0000000E+00
 0.0000000E+00  0.0000000E+00
 0.0000000E+00  0.0000000E+00
 0.0000000E+00  0.0000000E+00
 0.0000000E+00  0.0000000E+00
 0.0000000E+00  0.0000000E+00
 0.0000000E+00  0.0000000E+00
 0.0000000E+00  0.0000000E+00
 0.0000000E+00  0.0000000E+00
 0.0000000E+00  0.0000000E+00
 0.0000000E+00  0.0000000E+00
 0.0000000E+00  0.0000000E+00
 0.0000000E+00  0.0000000E+00
 0.0000000E+00  0.0000000E+00
 0.0000000E+00  0.0000000E+00
 0.0000000E+00  0.0000000E+00
 0.0000000E+00  0.0000000E+00
 0.0000000E+00  0.0000000E+00
 0.0000000E+00  0.0000000E+00
 0.0000000E+00  0.0000000E+00
 0.0000000E+00  0.0000000E+00
 0.0000000E+00  0.0000000E+00
 0.0000000E+00  0.0000000E+00
 0.0000000E+00  0.0000000E+00
 0.0000000E+00  0.0000000E+00
 0.0000000E+00  0.0000000E+00
 0.0000000E+00  0.0000000E+00
 0.0000000E+00  0.0000000E+00
 0.0000000E+00  0.0000000E+00
 0.0000000E+00  0.0000000E+00
 0.0000000E+00  0.0000000E+00
 0.0000000E+00  0.0000000E+00
 0.0000000E+00  0.0000000E+00
 0.0000000E+00  0.0000000E+00
 0.0000000E+00  0.0000000E+00
 0.0000000E+00  0.0000000E+00
 0.0000000E+00  0.0000000E+00
 0.0000000E+00  0.0000000E+00
 0.0000000E+00  0.0000000E+00
 0.0000000E+00  0.0000000E+00
 0.0000000E+00  0.0000000E+00
 0.0000000E+00  0.0000000E+00
 0.0000000E+00  0.0000000E+00
 0.0000000E+00  0.0000000E+00
 0.0000000E+00  0.0000000E+00
 0.0000000E+00  0.0000000E+00
 0.0000000E+00  0.0000000E+00
 0.0000000E+00  0.0000000E+00
 0.0000000E+00  0.0000000E+00
 0.0000000E+00  0.0000000E+00
 0.0000000E+00  0.0000000E+00
 0.0000000E+00  0.0000000E+00
 0.0000000E+00  0.0000000E+00
 0.0000000E+00  0.0000000E+00
 0.0000000E+00  0.0000000E+00
 0.0000000E+00  0.0000000E+00
 0.0000000E+00  0.0000000E+00
 0.0000000E+00  0.0000000E+00
 0.0000000E+00  0.0000000E+00
 0.0000000E+00  0.0000000E+00
 0.0000000E+00  0.0000000E+00
 0.0000000E+00  0.0000000E+00
 0.0000000E+00  0.0000000E+00
 0.0000000E+00  0.0000000E+00
 0.0000000E+00  0.0000000E+00
 0.0000000E+00  0.0000000E+00
 0.0000000E+00  0.0000000E+00
 0.0000000E+00  0.0000000E+00
 0.0000000E+00  0.0000000E+00
 0.0000000E+00  0.0000000E+00
 0.0000000E+00  0.0000000E+00
 0.0000000E+00  0.0000000E+00
 0.0000000E+00  0.0000000E+00
 0.0000000E+00  0.0000000E+00
 0.0000000E+00  0.0000000E+00
 0.0000000E+00  0.0000000E+00
 0.0000000E+00  0.0000000E+00
 0.0000000E+00  0.0000000E+00
 0.0000000E+00  0.0000000E+00
 0.0000000E+00  0.0000000E+00
 0.0000000E+00  0.0000000E+00
 0.0000000E+00  0.0000000E+00
 0.0000000E+00  0.0000000E+00
 0.0000000E+00  0.0000000E+00
 0.0000000E+00  0.0000000E+00
 0.0000000E+00  0.0000000E+00
 0.0000000E+00  0.0000000E+00
 0.0000000E+00  0.0000000E+00
 0.0000000E+00  0.0000000E+00
 0.0000000E+00  0.0000000E+00
 0.0000000E+00  0.0000000E+00
 0.0000000E+00  0.0000000E+00
 0.0000000E+00  0.0000000E+00
 0.0000000E+00  0.0000000E+00
 0.0000000E+00  0.0000000E+00
 0.0000000E+00  0.0000000E+00
 0.0000000E+00  0.0000000E+00
 0.0000000E+00  0.0000000E+00
 0.0000000E+00  0.0000000E+00
 0.0000000E+00  0.0000000E+00
 0.0000000E+00  0.0000000E+00
 0.0000000E+00  0.0000000E+00
 0.0000000E+00  0.0000000E+00
 0.0000000E+00  0.0000000E+00
 0.0000000E+00  0.0000000E+00
 0.0000000E+00  0.0000000E+00
 0.0000000E+00  0.0000000E+00
 0.0000000E+00  0.0000000E+00
 0.0000000E+00  0.0000000E+00
 0.0000000E+00  0.0000000E+00
 0.0000000E+00  0.0000000E+00
 0.0000000E+00  0.0000000E+00
 0.0000000E+00  0.0000000E+00
 0.0000000E+00  0.0000000E+00
 0.0000000E+00  0.0000000E+00
 0.0000000E+00  0.0000000E+00
 0.0000000E+00  0.0000000E+00
 0.0000000E+00  0.0000000E+00
 0.0000000E+00  0.0000000E+00
 0.0000000E+00  0.0000000E+00
 0.0000000E+00  0.0000000E+00
 0.0000000E+00  0.0000000E+00
 0.0000000E+00  0.0000000E+00
 0.0000000E+00  0.0000000E+00
 0.0000000E+00  0.0000000E+00
 0.0000000E+00  0.0000000E+00
 0.0000000E+00  0.0000000E+00
 0.0000000E+00  0.0000000E+00
 0.0000000E+00  0.0000000E+00
 0.0000000E+00  0.0000000E+00
 0.0000000E+00  0.0000000E+00
 0.0000000E+00  0.0000000E+00
 0.0000000E+00  0.0000000E+00
 0.0000000E+00  0.0000000E+00
 0.0000000E+00  0.0000000E+00
 0.0000000E+00  0.0000000E+00
 0.0000000E+00  0.0000000E+00
 0.0000000E+00  0.0000000E+00
 0.0000000E+00  0.0000000E+00
 0.0000000E+00  0.0000000E+00
 0.0000000E+00  0.0000000E+00
 0.0000000E+00  0.0000000E+00
 0.0000000E+00  0.0000000E+00
 0.0000000E+00  0.0000000E+00
 0.0000000E+00  0.0000000E+00
 0.0000000E+00  0.0000000E+00
 0.0000000E+00  0.0000000E+00
 0.0000000E+00  0.0000000E+00
 0.0000000E+00  0.0000000E+00
 0.0000000E+00  0.0000000E+00
 0.0000000E+00  0.0000000E+00
 0.0000000E+00  0.0000000E+00
 0.0000000E+00  0.0000000E+00
 0.0000000E+00  0.0000000E+00
 0.0000000E+00  0.0000000E+00
 0.0000000E+00  0.0000000E+00
 0.0000000E+00  0.0000000E+00
 0.0000000E+00  0.0000000E+00
 0.0000000E+00  0.0000000E+00
 0.0000000E+00  0.0000000E+00
 0.0000000E+00  0.0000000E+00
 0.0000000E+00  0.0000000E+00
 0.0000000E+00  0.0000000E+00
 0.0000000E+00  0.0000000E+00
 0.0000000E+00  0.0000000E+00
 0.0000000E+00  0.0000000E+00
 0.0000000E+00  0.0000000E+00
 0.0000000E+00  0.0000000E+00
 0.0000000E+00  0.0000000E+00
 0.0000000E+00  0.0000000E+00
 0.0000000E+00  0.0000000E+00
 0.0000000E+00  0.0000000E+00
 0.0000000E+00  0.0000000E+00
 0.0000000E+00  0.0000000E+00
 0.0000000E+00  0.0000000E+00
 0.0000000E+00  0.0000000E+00
 0.0000000E+00  0.0000000E+00
 0.0000000E+00  0.0000000E+00
 0.0000000E+00  0.0000000E+00
 0.0000000E+00  0.0000000E+00
 0.0000000E+00  0.0000000E+00
 0.0000000E+00  0.0000000E+00
 0.0000000E+00  0.0000000E+00
 0.0000000E+00  0.0000000E+00
 0.0000000E+00  0.0000000E+00
 0.0000000E+00  0.0000000E+00
 0.0000000E+00  0.0000000E+00
 0.0000000E+00  0.0000000E+00
 0.0000000E+00  0.0000000E+00
 0.0000000E+00  0.0000000E+00
 0.0000000E+00  0.0000000E+00
 0.0000000E+00  0.0000000E+00
 0.0000000E+00  0.0000000E+00
 0.0000000E+00  0.0000000E+00
 0.0000000E+00  0.0000000E+00
 0.0000000E+00  0.0000000E+00
 0.0000000E+00  0.0000000E+00
 0.0000000E+00  0.0000000E+00
 0.0000000E+00  0.0000000E+00
 0.0000000E+00  0.0000000E+00
 0.0000000E+00  0.0000000E+00
 0.0000000E+00  0.0000000E+00
 0.0000000E+00  0.0000000E+00
 0.0000000E+00  0.0000000E+00
 0.0000000E+00  0.0000000E+00
 0.0000000E+00  0.0000000E+00
 0.0000000E+00  0.0000000E+00
 0.0000000E+00  0.0000000E+00
 0.0000000E+00  0.0000000E+00
 0.0000000E+00  0.0000000E+00
 0.0000000E+00  0.0000000E+00
 0.0000000E+00  0.0000000E+00
 0.0000000E+00  0.0000000E+00
 0.0000000E+00  0.0000000E+00
 0.0000000E+00  0.0000000E+00
 0.0000000E+00  0.0000000E+00
 0.0000000E+00  0.0000000E+00
 0.0000000E+00  0.0000000E+00
 0.0000000E+00  0.0000000E+00
 0.0000000E+00  0.0000000E+00
 0.0000000E+00  0.0000000E+00
 0.0000000E+00  0.0000000E+00
 0.0000000E+00  0.0000000E+00
 0.0000000E+00  0.0000000E+00
 0.0000000E+00  0.0000000E+00
 0.0000000E+00  0.0000000E+00
 0.0000000E+00  0.0000000E+00
 0.0000000E+00  0.0000000E+00
 0.0000000E+00  0.0000000E+00
 0.0000000E+00  0.0000000E+00
 0.0000000E+00  0.0000000E+00
 0.0000000E+00  0.0000000E+00
 0.0000000E+00  0.0000000E+00
 0.0000000E+00  0.0000000E+00
 0.0000000E+00  0.0000000E+00
 0.0000000E+00  0.0000000E+00
 0.0000000E+00  0.0000000E+00
 0.0000000E+00  0.0000000E+00
 0.0000000E+00  0.0000000E+00
 0.0000000E+00  0.0000000E+00
 0.0000000E+00  0.0000000E+00
 0.0000000E+00  0.0000000E+00
 0.0000000E+00  0.0000000E+00
 0.0000000E+00  0.0000000E+00
 0.0000000E+00  0.0000000E+00
 0.0000000E+00  0.0000000E+00
 0.0000000E+00  0.0000000E+00
 0.0000000E+00  0.0000000E+00
 0.0000000E+00  0.0000000E+00
 0.0000000E+00  0.0000000E+00
 0.0000000E+00  0.0000000E+00
 0.0000000E+00  0.0000000E+00
 0.0000000E+00  0.0000000E+00
 0.0000000E+00  0.0000000E+00
 0.0000000E+00  0.0000000E+00
 0.0000000E+00  0.0000000E+00
 0.0000000E+00  0.0000000E+00
 0.0000000E+00  0.0000000E+00
 0.0000000E+00  0.0000000E+00
 0.0000000E+00  0.0000000E+00
 0.0000000E+00  0.0000000E+00
 0.0000000E+00  0.0000000E+00
 0.0000000E+00  0.0000000E+00
 0.0000000E+00  0.0000000E+00
 0.0000000E+00  0.0000000E+00
 0.0000000E+00  0.0000000E+00
 0.0000000E+00  0.0000000E+00
 0.0000000E+00  0.0000000E+00
 0.0000000E+00  0.0000000E+00
 0.0000000E+00  0.0000000E+00
 0.0000000E+00  0.0000000E+00
 0.0000000E+00  0.0000000E+00
 0.0000000E+00  0.0000000E+00
 0.0000000E+00  0.0000000E+00
 0.0000000E+00  0.0000000E+00
 0.0000000E+00  0.0000000E+00
 0.0000000E+00  0.0000000E+00
 0.0000000E+00  0.0000000E+00
 0.0000000E+00  0.0000000E+00
 0.0000000E+00  0.0000000E+00
 0.0000000E+00  0.0000000E+00
 0.0000000E+00  0.0000000E+00
 0.0000000E+00  0.0000000E+00
 0.0000000E+00  0.0000000E+00
 0.0000000E+00  0.0000000E+00
 0.0000000E+00  0.0000000E+00
 0.0000000E+00  0.0000000E+00
 0.0000000E+00  0.0000000E+00
 0.0000000E+00  0.0000000E+00
 0.0000000E+00  0.0000000E+00
 0.0000000E+00  0.0000000E+00
 0.0000000E+00  0.0000000E+00
 0.0000000E+00  0.0000000E+00
 0.0000000E+00  0.0000000E+00
 0.0000000E+00  0.0000000E+00
 0.0000000E+00  0.0000000E+00
 0.0000000E+00  0.0000000E+00
 0.0000000E+00  0.0000000E+00
 0.0000000E+00  0.0000000E+00
 0.0000000E+00  0.0000000E+00
 0.0000000E+00  0.0000000E+00
 0.0000000E+00  0.0000000E+00
 0.0000000E+00  0.0000000E+00
 0.0000000E+00  0.0000000E+00
 0.0000000E+00  0.0000000E+00
 0.0000000E+00  0.0000000E+00
 0.0000000E+00  0.0000000E+00
 0.0000000E+00  0.0000000E+00
 0.0000000E+00  0.0000000E+00
 0.0000000E+00  0.0000000E+00
 0.0000000E+00  0.0000000E+00
 0.0000000E+00  0.0000000E+00
 0.0000000E+00  0.0000000E+00
 0.0000000E+00  0.0000000E+00
 0.0000000E+00  0.0000000E+00
 0.0000000E+00  0.0000000E+00
 0.0000000E+00  0.0000000E+00
 0.0000000E+00  0.0000000E+00
 0.0000000E+00  0.0000000E+00
 0.0000000E+00  0.0000000E+00
 0.0000000E+00  0.0000000E+00
 0.0000000E+00  0.0000000E+00
 0.0000000E+00  0.0000000E+00
 0.0000000E+00  0.0000000E+00
 0.0000000E+00  0.0000000E+00
 0.0000000E+00  0.0000000E+00
 0.0000000E+00  0.0000000E+00
 0.0000000E+00  0.0000000E+00
 0.0000000E+00  0.0000000E+00
 0.0000000E+00  0.0000000E+00
 0.0000000E+00  0.0000000E+00
 0.0000000E+00  0.0000000E+00
 0.0000000E+00  0.0000000E+00
 0.0000000E+00  0.0000000E+00
 0.0000000E+00  0.0000000E+00
 0.0000000E+00  0.0000000E+00
 0.0000000E+00  0.0000000E+00
 0.0000000E+00  0.0000000E+00
 0.0000000E+00  0.0000000E+00
 0.0000000E+00  0.0000000E+00
 0.0000000E+00  0.0000000E+00
 0.0000000E+00  0.0000000E+00
 0.0000000E+00  0.0000000E+00
 0.0000000E+00  0.0000000E+00
 0.0000000E+00  0.0000000E+00
 0.0000000E+00  0.0000000E+00
 0.0000000E+00  0.0000000E+00
 0.0000000E+00  0.0000000E+00
 0.0000000E+00  0.0000000E+00
 0.0000000E+00  0.0000000E+00
 0.0000000E+00  0.0000000E+00
 0.0000000E+00  0.0000000E+00
 0.0000000E+00  0.0000000E+00
 0.0000000E+00  0.0000000E+00
 0.0000000E+00  0.0000000E+00
 0.0000000E+00  0.0000000E+00
 0.0000000E+00  0.0000000E+00
 0.0000000E+00  0.0000000E+00
 0.0000000E+00  0.0000000E+00
 0.0000000E+00  0.0000000E+00
 0.0000000E+00  0.0000000E+00
 0.0000000E+00  0.0000000E+00
 0.0000000E+00  0.0000000E+00
 0.0000000E+00  0.0000000E+00
 0.0000000E+00  0.0000000E+00
 0.0000000E+00  0.0000000E+00
 0.0000000E+00  0.0000000E+00
 0.0000000E+00  0.0000000E+00
 0.0000000E+00  0.0000000E+00
 0.0000000E+00  0.0000000E+00
 0.0000000E+00  0.0000000E+00
 0.0000000E+00  0.0000000E+00
 0.0000000E+00  0.0000000E+00
 0.0000000E+00  0.0000000E+00
 0.0000000E+00  0.0000000E+00
 0.0000000E+00  0.0000000E+00
 0.0000000E+00  0.0000000E+00
 0.0000000E+00  0.0000000E+00
 0.0000000E+00  0.0000000E+00
 0.0000000E+00  0.0000000E+00
 0.0000000E+00  0.0000000E+00
 0.0000000E+00  0.0000000E+00
 0.0000000E+00  0.0000000E+00
 0.0000000E+00  0.0000000E+00
 0.0000000E+00  0.0000000E+00
 0.0000000E+00  0.0000000E+00
 0.0000000E+00  0.0000000E+00
 0.0000000E+00  0.0000000E+00
 0.0000000E+00  0.0000000E+00
 0.0000000E+00  0.0000000E+00
 0.0000000E+00  0.0000000E+00
 0.0000000E+00  0.0000000E+00
 0.0000000E+00  0.0000000E+00
 0.0000000E+00  0.0000000E+00
 0.0000000E+00  0.0000000E+00
 0.0000000E+00  0.0000000E+00
 0.0000000E+00  0.0000000E+00
 0.0000000E+00  0.0000000E+00
 0.0000000E+00  0.0000000E+00
 0.0000000E+00  0.0000000E+00
 0.0000000E+00  0.0000000E+00
 0.0000000E+00  0.0000000E+00
 0.0000000E+00  0.0000000E+00
 0.0000000E+00  0.0000000E+00
 0.0000000E+00  0.0000000E+00
 0.0000000E+00  0.0000000E+00
 0.0000000E+00  0.0000000E+00
 0.0000000E+00  0.0000000E+00
 0.0000000E+00  0.0000000E+00
 0.0000000E+00  0.0000000E+00
 0.0000000E+00  0.0000000E+00
 0.0000000E+00  0.0000000E+00
 0.0000000E+00  0.0000000E+00
 0.0000000E+00  0.0000000E+00
 0.0000000E+00  0.0000000E+00
 0.0000000E+00  0.0000000E+00
 0.0000000E+00  0.0000000E+00
 0.0000000E+00  0.0000000E+00
 0.0000000E+00  0.0000000E+00
 0.0000000E+00  0.0000000E+00
 0.0000000E+00  0.0000000E+00
 0.0000000E+00  0.0000000E+00
 0.0000000E+00  0.0000000E+00
 0.0000000E+00  0.0000000E+00
 0.0000000E+00  0.0000000E+00
 0.0000000E+00  0.0000000E+00
 0.0000000E+00  0.0000000E+00
 0.0000000E+00  0.0000000E+00
 0.0000000E+00  0.0000000E+00
 0.0000000E+00  0.0000000E+00
 0.0000000E+00  0.0000000E+00
 0.0000000E+00  0.0000000E+00
 0.0000000E+00  0.0000000E+00
 0.0000000E+00  0.0000000E+00
 0.0000000E+00  0.0000000E+00
 0.0000000E+00  0.0000000E+00
 0.0000000E+00  0.0000000E+00
 0.0000000E+00  0.0000000E+00
 0.0000000E+00  0.0000000E+00
 0.0000000E+00  0.0000000E+00
 0.0000000E+00  0.0000000E+00
 0.0000000E+00  0.0000000E+00
 0.0000000E+00  0.0000000E+00
 0.0000000E+00  0.0000000E+00
 0.0000000E+00  0.0000000E+00
 0.0000000E+00  0.0000000E+00
 0.0000000E+00  0.0000000E+00
 0.0000000E+00  0.0000000E+00
 0.0000000E+00  0.0000000E+00
 0.0000000E+00  0.0000000E+00
 0.0000000E+00  0.0000000E+00
 0.0000000E+00  0.0000000E+00
 0.0000000E+00  0.0000000E+00
 0.0000000E+00  0.0000000E+00
 0.0000000E+00  0.0000000E+00
 0.0000000E+00  0.0000000E+00
 0.0000000E+00  0.0000000E+00
 0.0000000E+00  0.0000000E+00
 0.0000000E+00  0.0000000E+00
 0.0000000E+00  0.0000000E+00
 0.0000000E+00  0.0000000E+00
 0.0000000E+00  0.0000000E+00
 0.0000000E+00  0.0000000E+00
 0.0000000E+00  0.0000000E+00
 0.0000000E+00  0.0000000E+00
 0.0000000E+00  0.0000000E+00
 0.0000000E+00  0.0000000E+00
 0.0000000E+00  0.0000000E+00
 0.0000000E+00  0.0000000E+00
 0.0000000E+00  0.0000000E+00
 0.0000000E+00  0.0000000E+00
 0.0000000E+00  0.0000000E+00
 0.0000000E+00  0.0000000E+00
 0.0000000E+00  0.0000000E+00
 0.0000000E+00  0.0000000E+00
 0.0000000E+00  0.0000000E+00
 0.0000000E+00  0.0000000E+00
 0.0000000E+00  0.0000000E+00
 0.0000000E+00  0.0000000E+00
 0.0000000E+00  0.0000000E+00
 0.0000000E+00  0.0000000E+00
 0.0000000E+00  0.0000000E+00
 0.0000000E+00  0.0000000E+00
 0.0000000E+00  0.0000000E+00
 0.0000000E+00  0.0000000E+00
 0.0000000E+00  0.0000000E+00
 0.0000000E+00  0.0000000E+00
 0.0000000E+00  0.0000000E+00
 0.0000000E+00  0.0000000E+00
 0.0000000E+00  0.0000000E+00
 0.0000000E+00  0.0000000E+00
 0.0000000E+00  0.0000000E+00
 0.0000000E+00  0.0000000E+00
 0.0000000E+00  0.0000000E+00
 0.0000000E+00  0.0000000E+00
 0.0000000E+00  0.0000000E+00
 0.0000000E+00  0.0000000E+00
 0.0000000E+00  0.0000000E+00
 0.0000000E+00  0.0000000E+00
 0.0000000E+00  0.0000000E+00
 0.0000000E+00  0.0000000E+00
 0.0000000E+00  0.0000000E+00
 0.0000000E+00  0.0000000E+00
 0.0000000E+00  0.0000000E+00
 0.0000000E+00  0.0000000E+00
 0.0000000E+00  0.0000000E+00
 0.0000000E+00  0.0000000E+00
 0.0000000E+00  0.0000000E+00
 0.0000000E+00  0.0000000E+00
 0.0000000E+00  0.0000000E+00
 0.0000000E+00  0.0000000E+00
 0.0000000E+00  0.0000000E+00
 0.0000000E+00  0.0000000E+00
 0.0000000E+00  0.0000000E+00
 0.0000000E+00  0.0000000E+00
 0.0000000E+00  0.0000000E+00
 0.0000000E+00  0.0000000E+00
 0.0000000E+00  0.0000000E+00
 0.0000000E+00  0.0000000E+00
 0.0000000E+00  0.0000000E+00
 0.0000000E+00  0.0000000E+00
 0.0000000E+00  0.0000000E+00
 0.0000000E+00  0.0000000E+00
 0.0000000E+00  0.0000000E+00
 0.0000000E+00  0.0000000E+00
 0.0000000E+00  0.0000000E+00
 0.0000000E+00  0.0000000E+00
 0.0000000E+00  0.0000000E+00
 0.0000000E+00  0.0000000E+00
 0.0000000E+00  0.0000000E+00
 0.0000000E+00  0.0000000E+00
 0.0000000E+00  0.0000000E+00
 0.0000000E+00  0.0000000E+00
 0.0000000E+00  0.0000000E+00
 0.0000000E+00  0.0000000E+00
 0.0000000E+00  0.0000000E+00
 0.0000000E+00  0.0000000E+00
 0.0000000E+00  0.0000000E+00
 0.0000000E+00  0.0000000E+00
 0.0000000E+00  0.0000000E+00
 0.0000000E+00  0.0000000E+00
 0.0000000E+00  0.0000000E+00
 0.0000000E+00  0.0000000E+00
 0.0000000E+00  0.0000000E+00
 0.0000000E+00  0.0000000E+00
 0.0000000E+00  0.0000000E+00
 0.0000000E+00  0.0000000E+00
 0.0000000E+00  0.0000000E+00
 0.0000000E+00  0.0000000E+00
 0.0000000E+00  0.0000000E+00
 0.0000000E+00  0.0000000E+00
 0.0000000E+00  0.0000000E+00
 0.0000000E+00  0.0000000E+00
 0.0000000E+00  0.0000000E+00
 0.0000000E+00  0.0000000E+00
 0.0000000E+00  0.0000000E+00
 0.0000000E+00  0.0000000E+00
 0.0000000E+00  0.0000000E+00
 0.0000000E+00  0.0000000E+00
 0.0000000E+00  0.0000000E+00
 0.0000000E+00  0.0000000E+00
 0.0000000E+00  0.0000000E+00
 0.0000000E+00  0.0000000E+00
 0.0000000E+00  0.0000000E+00
 0.0000000E+00  0.0000000E+00
 0.0000000E+00  0.0000000E+00
 0.0000000E+00  0.0000000E+00
 0.0000000E+00  0.0000000E+00
 0.0000000E+00  0.0000000E+00
 0.0000000E+00  0.0000000E+00
 0.0000000E+00  0.0000000E+00
 0.0000000E+00  0.0000000E+00
 0.0000000E+00  0.0000000E+00
 0.0000000E+00  0.0000000E+00
 0.0000000E+00  0.0000000E+00
 0.0000000E+00  0.0000000E+00
 0.0000000E+00  0.0000000E+00
 0.0000000E+00  0.0000000E+00
 0.0000000E+00  0.0000000E+00
 0.0000000E+00  0.0000000E+00
 0.0000000E+00  0.0000000E+00
 0.0000000E+00  0.0000000E+00
 0.0000000E+00  0.0000000E+00
 0.0000000E+00  0.0000000E+00
 0.0000000E+00  0.0000000E+00
 0.0000000E+00  0.0000000E+00
 0.0000000E+00  0.0000000E+00
 0.0000000E+00  0.0000000E+00
 0.0000000E+00  0.0000000E+00
 0.0000000E+00  0.0000000E+00
 0.0000000E+00  0.0000000E+00
 0.0000000E+00  0.0000000E+00
 0.0000000E+00  0.0000000E+00
 0.0000000E+00  0.0000000E+00
 0.0000000E+00  0.0000000E+00
 0.0000000E+00  0.0000000E+00
 0.0000000E+00  0.0000000E+00
 0.0000000E+00  0.0000000E+00
 0.0000000E+00  0.0000000E+00
 0.0000000E+00  0.0000000E+00
 0.0000000E+00  0.0000000E+00
 0.0000000E+00  0.0000000E+00
 0.0000000E+00  0.0000000E+00
 0.0000000E+00  0.0000000E+00
 0.0000000E+00  0.0000000E+00
 0.0000000E+00  0.0000000E+00
 0.0000000E+00  0.0000000E+00
 0.0000000E+00  0.0000000E+00
 0.0000000E+00  0.0000000E+00
 0.0000000E+00  0.0000000E+00
 0.0000000E+00  0.0000000E+00
 0.0000000E+00  0.0000000E+00
 0.0000000E+00  0.0000000E+00
 0.0000000E+00  0.0000000E+00
 0.0000000E+00  0.0000000E+00
 0.0000000E+00  0.0000000E+00
 0.0000000E+00  0.0000000E+00
 0.0000000E+00  0.0000000E+00
 0.0000000E+00  0.0000000E+00
 0.0000000E+00  0.0000000E+00
 0.0000000E+00  0.0000000E+00
 0.0000000E+00  0.0000000E+00
 0.0000000E+00  0.0000000E+00
 0.0000000E+00  0.0000000E+00
 0.0000000E+00  0.0000000E+00
 0.0000000E+00  0.0000000E+00
 0.0000000E+00  0.0000000E+00
 0.0000000E+00  0.0000000E+00
 0.0000000E+00  0.0000000E+00
 0.0000000E+00  0.0000000E+00
 0.0000000E+00  0.0000000E+00
 0.0000000E+00  0.0000000E+00
 0.0000000E+00  0.0000000E+00
 0.0000000E+00  0.0000000E+00
 0.0000000E+00  0.0000000E+00
 0.0000000E+00  0.0000000E+00
 0.0000000E+00  0.0000000E+00
 0.0000000E+00  0.0000000E+00
 0.0000000E+00  0.0000000E+00
 0.0000000E+00  0.0000000E+00
 0.0000000E+00  0.0000000E+00
 0.0000000E+00  0.0000000E+00
 0.0000000E+00  0.0000000E+00
 0.0000000E+00  0.0000000E+00
 0.0000000E+00  0.0000000E+00
 0.0000000E+00  0.0000000E+00
 0.0000000E+00  0.0000000E+00
 0.0000000E+00  0.0000000E+00
 0.0000000E+00  0.0000000E+00
 0.0000000E+00  0.0000000E+00
 0.0000000E+00  0.0000000E+00
 0.0000000E+00  0.0000000E+00
 0.0000000E+00  0.0000000E+00
 0.0000000E+00  0.0000000E+00
 0.0000000E+00  0.0000000E+00
 0.0000000E+00  0.0000000E+00
 0.0000000E+00  0.0000000E+00
 0.0000000E+00  0.0000000E+00
 0.0000000E+00  0.0000000E+00
 0.0000000E+00  0.0000000E+00
 0.0000000E+00  0.0000000E+00
 0.0000000E+00  0.0000000E+00
 0.0000000E+00  0.0000000E+00
 0.0000000E+00  0.0000000E+00
 0.0000000E+00  0.0000000E+00
 0.0000000E+00  0.0000000E+00
 0.0000000E+00  0.0000000E+00
 0.0000000E+00  0.0000000E+00
 0.0000000E+00  0.0000000E+00
 0.0000000E+00  0.0000000E+00
 0.0000000E+00  0.0000000E+00
 0.0000000E+00  0.0000000E+00
 0.0000000E+00  0.0000000E+00
 0.0000000E+00  0.0000000E+00
 0.0000000E+00  0.0000000E+00
 0.0000000E+00  0.0000000E+00
 0.0000000E+00  0.0000000E+00
 0.0000000E+00  0.0000000E+00
 0.0000000E+00  0.0000000E+00
 0.0000000E+00  0.0000000E+00
 0.0000000E+00  0.0000000E+00
 0.0000000E+00  0.0000000E+00
 0.0000000E+00  0.0000000E+00
 0.0000000E+00  0.0000000E+00
 0.0000000E+00  0.0000000E+00
 0.0000000E+00  0.0000000E+00
 0.0000000E+00  0.0000000E+00
 0.0000000E+00  0.0000000E+00
 0.0000000E+00  0.0000000E+00
 0.0000000E+00  0.0000000E+00
 0.0000000E+00  0.0000000E+00
 0.0000000E+00  0.0000000E+00
 0.0000000E+00  0.0000000E+00
 0.0000000E+00  0.0000000E+00
 0.0000000E+00  0.0000000E+00
 0.0000000E+00  0.0000000E+00
 0.0000000E+00  0.0000000E+00
 0.0000000E+00  0.0000000E+00
 0.0000000E+00  0.0000000E+00
 0.0000000E+00  0.0000000E+00
 0.0000000E+00  0.0000000E+00
 0.0000000E+00  0.0000000E+00
 0.0000000E+00  0.0000000E+00
 0.0000000E+00  0.0000000E+00
 0.0000000E+00  0.0000000E+00
 0.0000000E+00  0.0000000E+00
 0.0000000E+00  0.0000000E+00
 0.0000000E+00  0.0000000E+00
 0.0000000E+00  0.0000000E+00
 0.0000000E+00  0.0000000E+00
 0.0000000E+00  0.0000000E+00
 0.0000000E+00  0.0000000E+00
 0.0000000E+00  0.0000000E+00
 0.0000000E+00  0.0000000E+00
 0.0000000E+00  0.0000000E+00
 0.0000000E+00  0.0000000E+00
 0.0000000E+00  0.0000000E+00
 0.0000000E+00  0.0000000E+00
 0.0000000E+00  0.0000000E+00
 0.0000000E+00  0.0000000E+00
 0.0000000E+00  0.0000000E+00
 0.0000000E+00  0.0000000E+00
 0.0000000E+00  0.0000000E+00
 0.0000000E+00  0.0000000E+00
 0.0000000E+00  0.0000000E+00
 0.0000000E+00  0.0000000E+00
 0.0000000E+00  0.0000000E+00
 0.0000000E+00  0.0000000E+00
 0.0000000E+00  0.0000000E+00
 0.0000000E+00  0.0000000E+00
 0.0000000E+00  0.0000000E+00
 0.0000000E+00  0.0000000E+00
 0.0000000E+00  0.0000000E+00
 0.0000000E+00  0.0000000E+00
 0.0000000E+00  0.0000000E+00
 0.0000000E+00  0.0000000E+00
 0.0000000E+00  0.0000000E+00
 0.0000000E+00  0.0000000E+00
 0.0000000E+00  0.0000000E+00
 0.0000000E+00  0.0000000E+00
 0.0000000E+00  0.0000000E+00
 0.0000000E+00  0.0000000E+00
 0.0000000E+00  0.0000000E+00
 0.0000000E+00  0.0000000E+00
 0.0000000E+00  0.0000000E+00
 0.0000000E+00  0.0000000E+00
 0.0000000E+00  0.0000000E+00
 0.0000000E+00  0.0000000E+00
 0.0000000E+00  0.0000000E+00
 0.0000000E+00  0.0000000E+00
 0.0000000E+00  0.0000000E+00
 0.0000000E+00  0.0000000E+00
 0.0000000E+00  0.0000000E+00
 0.0000000E+00  0.0000000E+00
 0.0000000E+00  0.0000000E+00
 0.0000000E+00  0.0000000E+00
 0.0000000E+00  0.0000000E+00
 0.0000000E+00  0.0000000E+00
 0.0000000E+00  0.0000000E+00
 0.0000000E+00  0.0000000E+00
 0.0000000E+00  0.0000000E+00
 0.0000000E+00  0.0000000E+00
 0.0000000E+00  0.0000000E+00
 0.0000000E+00  0.0000000E+00
 0.0000000E+00  0.0000000E+00
 0.0000000E+00  0.0000000E+00
 0.0000000E+00  0.0000000E+00
 0.0000000E+00  0.0000000E+00
 0.0000000E+00  0.0000000E+00
 0.0000000E+00  0.0000000E+00
 0.0000000E+00  0.0000000E+00
 0.0000000E+00  0.0000000E+00
 0.0000000E+00  0.0000000E+00
 0.0000000E+00  0.0000000E+00
 0.0000000E+00  0.0000000E+00
 0.0000000E+00  0.0000000E+00
 0.0000000E+00  0.0000000E+00
 0.0000000E+00  0.0000000E+00
 0.0000000E+00  0.0000000E+00
 0.0000000E+00  0.0000000E+00
 0.0000000E+00  0.0000000E+00
 0.0000000E+00  0.0000000E+00
 0.0000000E+00  0.0000000E+00
 0.0000000E+00  0.0000000E+00
 0.0000000E+00  0.0000000E+00
 0.0000000E+00  0.0000000E+00
 0.0000000E+00  0.0000000E+00
 0.0000000E+00  0.0000000E+00
 0.0000000E+00  0.0000000E+00
 0.0000000E+00  0.0000000E+00
 0.0000000E+00  0.0000000E+00
 0.0000000E+00  0.0000000E+00
 0.0000000E+00  0.0000000E+00
 0.0000000E+00  0.0000000E+00
 0.0000000E+00  0.0000000E+00
 0.0000000E+00  0.0000000E+00
 0.0000000E+00  0.0000000E+00
 0.0000000E+00  0.0000000E+00
 0.0000000E+00  0.0000000E+00
 0.0000000E+00  0.0000000E+00
 0.0000000E+00  0.0000000E+00
 0.0000000E+00  0.0000000E+00
 0.0000000E+00  0.0000000E+00
 0.0000000E+00  0.0000000E+00
 0.0000000E+00  0.0000000E+00
 0.0000000E+00  0.0000000E+00
 0.0000000E+00  0.0000000E+00
 0.0000000E+00  0.0000000E+00
 0.0000000E+00  0.0000000E+00
 0.0000000E+00  0.0000000E+00
 0.0000000E+00  0.0000000E+00
 0.0000000E+00  0.0000000E+00
 0.0000000E+00  0.0000000E+00
 0.0000000E+00  0.0000000E+00
 0.0000000E+00  0.0000000E+00
 0.0000000E+00  0.0000000E+00
 0.0000000E+00  0.0000000E+00
 0.0000000E+00  0.0000000E+00
 0.0000000E+00  0.0000000E+00
 0.0000000E+00  0.0000000E+00
 0.0000000E+00  0.0000000E+00
 0.0000000E+00  0.0000000E+00
 0.0000000E+00  0.0000000E+00
 0.0000000E+00  0.0000000E+00
 0.0000000E+00  0.0000000E+00
 0.0000000E+00  0.0000000E+00
 0.0000000E+00  0.0000000E+00
 0.0000000E+00  0.0000000E+00
 0.0000000E+00  0.0000000E+00
 0.0000000E+00  0.0000000E+00
 0.0000000E+00  0.0000000E+00
 0.0000000E+00  0.0000000E+00
 0.0000000E+00  0.0000000E+00
 0.0000000E+00  0.0000000E+00
 0.0000000E+00  0.0000000E+00
 0.0000000E+00  0.0000000E+00
 0.0000000E+00  0.0000000E+00
 0.0000000E+00  0.0000000E+00
 0.0000000E+00  0.0000000E+00
 0.0000000E+00  0.0000000E+00
 0.0000000E+00  0.0000000E+00
 0.0000000E+00  0.0000000E+00
 0.0000000E+00  0.0000000E+00
 0.0000000E+00  0.0000000E+00
 0.0000000E+00  0.0000000E+00
 0.0000000E+00  0.0000000E+00
 0.0000000E+00  0.0000000E+00
 0.0000000E+00  0.0000000E+00
 0.0000000E+00  0.0000000E+00
 0.0000000E+00  0.0000000E+00
 0.0000000E+00  0.0000000E+00
 0.0000000E+00  0.0000000E+00
 0.0000000E+00  0.0000000E+00
 0.0000000E+00  0.0000000E+00
 0.0000000E+00  0.0000000E+00
 0.0000000E+00  0.0000000E+00
 0.0000000E+00  0.0000000E+00
 0.0000000E+00  0.0000000E+00
 0.0000000E+00  0.0000000E+00
 0.0000000E+00  0.0000000E+00
 0.0000000E+00  0.0000000E+00
 0.0000000E+00  0.0000000E+00
 0.0000000E+00  0.0000000E+00
 0.0000000E+00  0.0000000E+00
 0.0000000E+00  0.0000000E+00
 0.0000000E+00  0.0000000E+00
 0.0000000E+00  0.0000000E+00
 0.0000000E+00  0.0000000E+00
 0.0000000E+00  0.0000000E+00
 0.0000000E+00  0.0000000E+00
 0.0000000E+00  0.0000000E+00
 0.0000000E+00  0.0000000E+00
 0.0000000E+00  0.0000000E+00
 0.0000000E+00  0.0000000E+00
 0.0000000E+00  0.0000000E+00
 0.0000000E+00  0.0000000E+00
 0.0000000E+00  0.0000000E+00
 0.0000000E+00  0.0000000E+00
 0.0000000E+00  0.0000000E+00
 0.0000000E+00  0.0000000E+00
 0.0000000E+00  0.0000000E+00
 0.0000000E+00  0.0000000E+00
 0.0000000E+00  0.0000000E+00
 0.0000000E+00  0.0000000E+00
 0.0000000E+00  0.0000000E+00
 0.0000000E+00  0.0000000E+00
 0.0000000E+00  0.0000000E+00
 0.0000000E+00  0.0000000E+00
 0.0000000E+00  0.0000000E+00
 0.0000000E+00  0.0000000E+00
 0.0000000E+00  0.0000000E+00
 0.0000000E+00  0.0000000E+00
 0.0000000E+00  0.0000000E+00
 0.0000000E+00  0.0000000E+00
 0.0000000E+00  0.0000000E+00
 0.0000000E+00  0.0000000E+00
 0.0000000E+00  0.0000000E+00
 0.0000000E+00  0.0000000E+00
 0.0000000E+00  0.0000000E+00
 0.0000000E+00  0.0000000E+00
 0.0000000E+00  0.0000000E+00
 0.0000000E+00  0.0000000E+00
