Pt_bulk_ramp03-00906.tif: 2-theta Scan
2-Theta Angle (Degrees)

       1465
 2.0003892E-02  0.0000000E+00
 6.0011677E-02  0.0000000E+00
 1.0001946E-01  0.0000000E+00
 1.4002724E-01  0.0000000E+00
 1.8003502E-01  0.0000000E+00
 2.2004281E-01  0.0000000E+00
 2.6005059E-01  0.0000000E+00
 3.0005839E-01  0.0000000E+00
 3.4006616E-01  0.0000000E+00
 3.8007396E-01  0.0000000E+00
 4.2008173E-01  0.0000000E+00
 4.6008953E-01  0.0000000E+00
 5.0009733E-01  0.0000000E+00
 5.4010510E-01  0.0000000E+00
 5.8011287E-01  0.0000000E+00
 6.2012064E-01  0.0000000E+00
 6.6012847E-01  0.0000000E+00
 7.0013624E-01  0.0000000E+00
 7.4014401E-01  1.6882766E+04
 7.8015178E-01  1.9182873E+04
 8.2015961E-01  2.9976873E+04
 8.6016738E-01  4.9253184E+04
 9.0017515E-01  7.5407688E+04
 9.4018292E-01  8.9654992E+04
 9.8019075E-01  8.9948305E+04
 1.0201985E+00  8.4702250E+04
 1.0602063E+00  7.8464602E+04
 1.1002141E+00  7.4078102E+04
 1.1402218E+00  6.9631094E+04
 1.1802297E+00  6.5930492E+04
 1.2202375E+00  6.3078812E+04
 1.2602452E+00  6.0625141E+04
 1.3002530E+00  5.8578691E+04
 1.3402607E+00  5.6888566E+04
 1.3802686E+00  5.5408449E+04
 1.4202764E+00  5.4187613E+04
 1.4602841E+00  5.3154438E+04
 1.5002919E+00  5.2254695E+04
 1.5402998E+00  5.1521332E+04
 1.5803075E+00  5.0744922E+04
 1.6203153E+00  5.0155270E+04
 1.6603230E+00  4.9778000E+04
 1.7003309E+00  4.9589406E+04
 1.7403387E+00  4.9865133E+04
 1.7803464E+00  5.0177422E+04
 1.8203542E+00  4.9865320E+04
 1.8603621E+00  4.8944656E+04
 1.9003698E+00  4.7928781E+04
 1.9403776E+00  4.7460953E+04
 1.9803853E+00  4.7481734E+04
 2.0203931E+00  4.7779332E+04
 2.0604010E+00  4.8032199E+04
 2.1004088E+00  4.8036695E+04
 2.1404164E+00  4.7787855E+04
 2.1804242E+00  4.7521051E+04
 2.2204320E+00  4.7471285E+04
 2.2604399E+00  4.7637961E+04
 2.3004477E+00  4.7756113E+04
 2.3404555E+00  4.7901938E+04
 2.3804631E+00  4.8076293E+04
 2.4204710E+00  4.8306551E+04
 2.4604788E+00  4.8656090E+04
 2.5004866E+00  4.9075340E+04
 2.5404944E+00  4.9602945E+04
 2.5805020E+00  5.0006207E+04
 2.6205099E+00  5.0104918E+04
 2.6605177E+00  4.9861277E+04
 2.7005255E+00  4.9141332E+04
 2.7405334E+00  4.8268688E+04
 2.7805409E+00  4.7384688E+04
 2.8205488E+00  4.6628566E+04
 2.8605566E+00  4.6076117E+04
 2.9005644E+00  4.5600988E+04
 2.9405723E+00  4.5007590E+04
 2.9805801E+00  4.4085113E+04
 3.0205877E+00  4.2970633E+04
 3.0605955E+00  4.1999293E+04
 3.1006033E+00  4.1287016E+04
 3.1406112E+00  4.0798055E+04
 3.1806190E+00  4.0408398E+04
 3.2206266E+00  4.0112430E+04
 3.2606344E+00  3.9927812E+04
 3.3006423E+00  3.9830145E+04
 3.3406501E+00  3.9924992E+04
 3.3806579E+00  4.0236734E+04
 3.4206655E+00  4.0612043E+04
 3.4606733E+00  4.0756570E+04
 3.5006812E+00  4.0663250E+04
 3.5406890E+00  4.0533641E+04
 3.5806968E+00  4.0506219E+04
 3.6207047E+00  4.0562664E+04
 3.6607122E+00  4.0551027E+04
 3.7007201E+00  4.0430379E+04
 3.7407279E+00  4.0314277E+04
 3.7807357E+00  4.0133160E+04
 3.8207436E+00  3.9873164E+04
 3.8607512E+00  3.9662891E+04
 3.9007590E+00  3.9515633E+04
 3.9407668E+00  3.9447773E+04
 3.9807746E+00  3.9436078E+04
 4.0207825E+00  3.9534039E+04
 4.0607901E+00  3.9747523E+04
 4.1007981E+00  4.0038953E+04
 4.1408057E+00  4.0357129E+04
 4.1808133E+00  4.0701980E+04
 4.2208214E+00  4.1100941E+04
 4.2608290E+00  4.1531281E+04
 4.3008370E+00  4.2083703E+04
 4.3408446E+00  4.2798480E+04
 4.3808522E+00  4.3686840E+04
 4.4208603E+00  4.4789473E+04
 4.4608679E+00  4.6113676E+04
 4.5008759E+00  4.7660461E+04
 4.5408835E+00  4.9376434E+04
 4.5808916E+00  5.1329367E+04
 4.6208992E+00  5.3624234E+04
 4.6609068E+00  5.6238770E+04
 4.7009149E+00  5.9321461E+04
 4.7409225E+00  6.3071645E+04
 4.7809305E+00  6.7661766E+04
 4.8209381E+00  7.3363750E+04
 4.8609457E+00  8.0410867E+04
 4.9009538E+00  8.9317148E+04
 4.9409614E+00  1.0084341E+05
 4.9809694E+00  1.1573634E+05
 5.0209770E+00  1.3612255E+05
 5.0609846E+00  1.6455739E+05
 5.1009927E+00  2.0510138E+05
 5.1410003E+00  2.6993431E+05
 5.1810083E+00  3.8343681E+05
 5.2210159E+00  6.0712206E+05
 5.2610235E+00  1.0982622E+06
 5.3010316E+00  2.0228348E+06
 5.3410392E+00  3.1559465E+06
 5.3810472E+00  3.6772455E+06
 5.4210548E+00  3.6782995E+06
 5.4610624E+00  3.1352668E+06
 5.5010705E+00  2.0038641E+06
 5.5410781E+00  1.0505800E+06
 5.5810862E+00  5.6435288E+05
 5.6210938E+00  3.4900144E+05
 5.6611013E+00  2.4692916E+05
 5.7011094E+00  1.9673980E+05
 5.7411170E+00  1.7046261E+05
 5.7811251E+00  1.5731934E+05
 5.8211327E+00  1.5342212E+05
 5.8611407E+00  1.5679509E+05
 5.9011483E+00  1.6862369E+05
 5.9411559E+00  1.9147186E+05
 5.9811640E+00  2.3222439E+05
 6.0211716E+00  3.0759194E+05
 6.0611796E+00  4.4904378E+05
 6.1011872E+00  7.2045788E+05
 6.1411948E+00  1.1739186E+06
 6.1812029E+00  1.7133982E+06
 6.2212105E+00  2.0710258E+06
 6.2612185E+00  1.9727986E+06
 6.3012261E+00  1.4910064E+06
 6.3412337E+00  9.2571006E+05
 6.3812418E+00  5.2880662E+05
 6.4212494E+00  3.0568425E+05
 6.4612575E+00  1.9439514E+05
 6.5012650E+00  1.3665689E+05
 6.5412726E+00  1.0434602E+05
 6.5812807E+00  8.5256625E+04
 6.6212883E+00  7.2831531E+04
 6.6612964E+00  6.4269051E+04
 6.7013040E+00  5.8240785E+04
 6.7413116E+00  5.3692699E+04
 6.7813196E+00  5.0230594E+04
 6.8213272E+00  4.7526105E+04
 6.8613353E+00  4.5266113E+04
 6.9013429E+00  4.3352176E+04
 6.9413505E+00  4.1682473E+04
 6.9813585E+00  4.0182621E+04
 7.0213661E+00  3.8980863E+04
 7.0613742E+00  3.8004914E+04
 7.1013818E+00  3.7143836E+04
 7.1413898E+00  3.6428949E+04
 7.1813974E+00  3.5794297E+04
 7.2214050E+00  3.5277293E+04
 7.2614131E+00  3.4844430E+04
 7.3014207E+00  3.4496668E+04
 7.3414288E+00  3.4240637E+04
 7.3814363E+00  3.4066555E+04
 7.4214439E+00  3.3924246E+04
 7.4614520E+00  3.3816410E+04
 7.5014596E+00  3.3721863E+04
 7.5414677E+00  3.3658371E+04
 7.5814753E+00  3.3667512E+04
 7.6214828E+00  3.3747277E+04
 7.6614909E+00  3.3898230E+04
 7.7014985E+00  3.4142695E+04
 7.7415066E+00  3.4457469E+04
 7.7815142E+00  3.4831785E+04
 7.8215218E+00  3.5286512E+04
 7.8615298E+00  3.5808344E+04
 7.9015374E+00  3.6440797E+04
 7.9415455E+00  3.7220082E+04
 7.9815531E+00  3.8100754E+04
 8.0215607E+00  3.9091520E+04
 8.0615683E+00  4.0246797E+04
 8.1015768E+00  4.1628535E+04
 8.1415844E+00  4.3299441E+04
 8.1815920E+00  4.5328527E+04
 8.2215996E+00  4.7760816E+04
 8.2616072E+00  5.0753449E+04
 8.3016157E+00  5.4533234E+04
 8.3416233E+00  5.9311859E+04
 8.3816309E+00  6.5526043E+04
 8.4216385E+00  7.3805758E+04
 8.4616461E+00  8.4996211E+04
 8.5016546E+00  1.0082846E+05
 8.5416622E+00  1.2468472E+05
 8.5816698E+00  1.6280806E+05
 8.6216774E+00  2.2969172E+05
 8.6616850E+00  3.5517869E+05
 8.7016935E+00  5.8146569E+05
 8.7417011E+00  9.3671806E+05
 8.7817087E+00  1.3182056E+06
 8.8217163E+00  1.5222896E+06
 8.8617239E+00  1.3981744E+06
 8.9017324E+00  1.0419616E+06
 8.9417400E+00  6.6043869E+05
 8.9817476E+00  3.9247053E+05
 9.0217552E+00  2.4112402E+05
 9.0617638E+00  1.6095800E+05
 9.1017714E+00  1.1877041E+05
 9.1417789E+00  9.5167508E+04
 9.1817865E+00  8.0907234E+04
 9.2217941E+00  7.2028117E+04
 9.2618027E+00  6.6184531E+04
 9.3018103E+00  6.2231480E+04
 9.3418179E+00  5.9632660E+04
 9.3818254E+00  5.7878750E+04
 9.4218330E+00  5.6809586E+04
 9.4618416E+00  5.6348613E+04
 9.5018492E+00  5.6326605E+04
 9.5418568E+00  5.6710527E+04
 9.5818644E+00  5.7516641E+04
 9.6218719E+00  5.8790441E+04
 9.6618805E+00  6.0628809E+04
 9.7018881E+00  6.3054633E+04
 9.7418957E+00  6.6239102E+04
 9.7819033E+00  7.0317000E+04
 9.8219109E+00  7.5521383E+04
 9.8619194E+00  8.2279266E+04
 9.9019270E+00  9.0962258E+04
 9.9419346E+00  1.0269933E+05
 9.9819422E+00  1.1888325E+05
 1.0021950E+01  1.4148069E+05
 1.0061958E+01  1.7492841E+05
 1.0101966E+01  2.2762120E+05
 1.0141973E+01  3.1526100E+05
 1.0181981E+01  4.6952197E+05
 1.0221989E+01  7.3537881E+05
 1.0261997E+01  1.1239049E+06
 1.0302005E+01  1.5446696E+06
 1.0342012E+01  1.7748728E+06
 1.0382020E+01  1.6725345E+06
 1.0422028E+01  1.2977941E+06
 1.0462036E+01  8.7589225E+05
 1.0502044E+01  5.5665031E+05
 1.0542051E+01  3.6809162E+05
 1.0582059E+01  2.7440678E+05
 1.0622066E+01  2.4234783E+05
 1.0662075E+01  2.6186073E+05
 1.0702083E+01  3.3409797E+05
 1.0742090E+01  4.4992962E+05
 1.0782098E+01  5.5569475E+05
 1.0822105E+01  5.7902956E+05
 1.0862114E+01  4.9521925E+05
 1.0902122E+01  3.5700750E+05
 1.0942129E+01  2.3313036E+05
 1.0982137E+01  1.5160447E+05
 1.1022144E+01  1.0623220E+05
 1.1062153E+01  8.1394656E+04
 1.1102160E+01  6.7245578E+04
 1.1142168E+01  5.8651191E+04
 1.1182176E+01  5.2930207E+04
 1.1222183E+01  4.8895242E+04
 1.1262192E+01  4.5970008E+04
 1.1302199E+01  4.3697445E+04
 1.1342207E+01  4.1917391E+04
 1.1382215E+01  4.0526410E+04
 1.1422222E+01  3.9393660E+04
 1.1462231E+01  3.8465887E+04
 1.1502238E+01  3.7679117E+04
 1.1542246E+01  3.6962770E+04
 1.1582253E+01  3.6361051E+04
 1.1622262E+01  3.5916070E+04
 1.1662270E+01  3.5554047E+04
 1.1702277E+01  3.5293652E+04
 1.1742285E+01  3.5155535E+04
 1.1782292E+01  3.5141680E+04
 1.1822301E+01  3.5267609E+04
 1.1862309E+01  3.5544539E+04
 1.1902316E+01  3.6014105E+04
 1.1942324E+01  3.6804375E+04
 1.1982331E+01  3.8066836E+04
 1.2022340E+01  4.0113402E+04
 1.2062347E+01  4.1524719E+04
 1.2102355E+01  4.3319449E+04
 1.2142363E+01  4.6073855E+04
 1.2182370E+01  5.0632820E+04
 1.2222379E+01  5.7363023E+04
 1.2262386E+01  6.7776188E+04
 1.2302394E+01  8.4137875E+04
 1.2342402E+01  1.0998184E+05
 1.2382409E+01  1.4713881E+05
 1.2422418E+01  1.8995880E+05
 1.2462425E+01  2.2262820E+05
 1.2502433E+01  2.2702450E+05
 1.2542440E+01  2.0085677E+05
 1.2582448E+01  1.5843947E+05
 1.2622457E+01  1.1835650E+05
 1.2662464E+01  8.9333188E+04
 1.2702472E+01  7.0908953E+04
 1.2742479E+01  6.0012988E+04
 1.2782487E+01  5.3736258E+04
 1.2822495E+01  5.0231277E+04
 1.2862503E+01  4.8460250E+04
 1.2902511E+01  4.7815281E+04
 1.2942518E+01  4.7999211E+04
 1.2982526E+01  4.8855801E+04
 1.3022534E+01  5.0377973E+04
 1.3062542E+01  5.2543680E+04
 1.3102550E+01  5.5435172E+04
 1.3142557E+01  5.9243555E+04
 1.3182565E+01  6.4273172E+04
 1.3222573E+01  7.0925055E+04
 1.3262581E+01  7.9891047E+04
 1.3302588E+01  9.2333469E+04
 1.3342596E+01  1.1020822E+05
 1.3382604E+01  1.3752111E+05
 1.3422612E+01  1.8159492E+05
 1.3462620E+01  2.5442775E+05
 1.3502627E+01  3.6858459E+05
 1.3542635E+01  5.1872525E+05
 1.3582643E+01  6.5797500E+05
 1.3622651E+01  7.1870444E+05
 1.3662659E+01  6.6946819E+05
 1.3702666E+01  5.5168650E+05
 1.3742674E+01  4.3541944E+05
 1.3782681E+01  3.6954138E+05
 1.3822690E+01  3.6924578E+05
 1.3862698E+01  4.3079978E+05
 1.3902705E+01  5.3030300E+05
 1.3942713E+01  6.1471462E+05
 1.3982720E+01  6.2687238E+05
 1.4022729E+01  5.5064562E+05
 1.4062737E+01  4.2545288E+05
 1.4102744E+01  3.0252309E+05
 1.4142752E+01  2.1076444E+05
 1.4182760E+01  1.5088406E+05
 1.4222768E+01  1.1384588E+05
 1.4262775E+01  9.1141445E+04
 1.4302783E+01  7.6838734E+04
 1.4342791E+01  6.7488523E+04
 1.4382799E+01  6.1179980E+04
 1.4422807E+01  5.6799688E+04
 1.4462814E+01  5.3679387E+04
 1.4502822E+01  5.1451621E+04
 1.4542830E+01  4.9914766E+04
 1.4582838E+01  4.8904379E+04
 1.4622846E+01  4.8354023E+04
 1.4662853E+01  4.8207176E+04
 1.4702861E+01  4.8469059E+04
 1.4742868E+01  4.9169566E+04
 1.4782877E+01  5.0381289E+04
 1.4822885E+01  5.2168047E+04
 1.4862892E+01  5.4727605E+04
 1.4902900E+01  5.8312867E+04
 1.4942907E+01  6.3291355E+04
 1.4982916E+01  7.0266141E+04
 1.5022923E+01  8.0336016E+04
 1.5062931E+01  9.5346648E+04
 1.5102939E+01  1.1891927E+05
 1.5142946E+01  1.5668125E+05
 1.5182955E+01  2.1570317E+05
 1.5222962E+01  2.9595925E+05
 1.5262970E+01  3.7898828E+05
 1.5302978E+01  4.2842938E+05
 1.5342985E+01  4.1640253E+05
 1.5382994E+01  3.5072003E+05
 1.5423001E+01  2.6542778E+05
 1.5463009E+01  1.9117053E+05
 1.5503016E+01  1.3888527E+05
 1.5543024E+01  1.0573596E+05
 1.5583033E+01  8.5727984E+04
 1.5623040E+01  7.3913969E+04
 1.5663048E+01  6.7105836E+04
 1.5703055E+01  6.3479957E+04
 1.5743063E+01  6.2100996E+04
 1.5783072E+01  6.2546945E+04
 1.5823079E+01  6.4723941E+04
 1.5863087E+01  6.8816781E+04
 1.5903094E+01  7.5291898E+04
 1.5943102E+01  8.5012961E+04
 1.5983110E+01  9.9606898E+04
 1.6023117E+01  1.2195151E+05
 1.6063126E+01  1.5666192E+05
 1.6103134E+01  2.0925984E+05
 1.6143141E+01  2.8176494E+05
 1.6183149E+01  3.6214616E+05
 1.6223156E+01  4.2075469E+05
 1.6263165E+01  4.2760044E+05
 1.6303173E+01  3.7825144E+05
 1.6343180E+01  2.9822019E+05
 1.6383188E+01  2.1923570E+05
 1.6423195E+01  1.5805767E+05
 1.6463203E+01  1.1643157E+05
 1.6503212E+01  8.9581195E+04
 1.6543219E+01  7.2361688E+04
 1.6583227E+01  6.1184367E+04
 1.6623234E+01  5.3699379E+04
 1.6663242E+01  4.8532949E+04
 1.6703251E+01  4.4847754E+04
 1.6743258E+01  4.2196398E+04
 1.6783266E+01  4.0224453E+04
 1.6823273E+01  3.8758391E+04
 1.6863281E+01  3.7677047E+04
 1.6903290E+01  3.6878789E+04
 1.6943296E+01  3.6312348E+04
 1.6983305E+01  3.5956992E+04
 1.7023312E+01  3.5765020E+04
 1.7063320E+01  3.5707574E+04
 1.7103329E+01  3.5838422E+04
 1.7143335E+01  3.6143145E+04
 1.7183344E+01  3.6623816E+04
 1.7223351E+01  3.7385887E+04
 1.7263359E+01  3.8439750E+04
 1.7303368E+01  3.9871395E+04
 1.7343374E+01  4.1817988E+04
 1.7383383E+01  4.4469809E+04
 1.7423389E+01  4.8169980E+04
 1.7463398E+01  5.3575902E+04
 1.7503407E+01  6.1737730E+04
 1.7543413E+01  7.4108828E+04
 1.7583422E+01  9.1879758E+04
 1.7623428E+01  1.1376112E+05
 1.7663437E+01  1.3365855E+05
 1.7703445E+01  1.4319728E+05
 1.7743452E+01  1.3791547E+05
 1.7783461E+01  1.2130804E+05
 1.7823467E+01  1.0131330E+05
 1.7863476E+01  8.4309133E+04
 1.7903484E+01  7.2525828E+04
 1.7943491E+01  6.5498172E+04
 1.7983500E+01  6.2104559E+04
 1.8023508E+01  6.1447762E+04
 1.8063515E+01  6.2979645E+04
 1.8103523E+01  6.6348297E+04
 1.8143530E+01  7.1746422E+04
 1.8183538E+01  7.9640484E+04
 1.8223547E+01  9.1006078E+04
 1.8263554E+01  1.0752030E+05
 1.8303562E+01  1.3206180E+05
 1.8343569E+01  1.6897870E+05
 1.8383577E+01  2.2279531E+05
 1.8423586E+01  2.9293591E+05
 1.8463593E+01  3.6593209E+05
 1.8503601E+01  4.1684953E+05
 1.8543608E+01  4.2562400E+05
 1.8583616E+01  3.9580494E+05
 1.8623625E+01  3.5208744E+05
 1.8663631E+01  3.2016112E+05
 1.8703640E+01  3.0937278E+05
 1.8743647E+01  3.0984669E+05
 1.8783655E+01  3.0243141E+05
 1.8823664E+01  2.7486562E+05
 1.8863670E+01  2.3041362E+05
 1.8903679E+01  1.8212681E+05
 1.8943686E+01  1.4089275E+05
 1.8983694E+01  1.1043190E+05
 1.9023703E+01  8.9498797E+04
 1.9063709E+01  7.5496242E+04
 1.9103718E+01  6.6185828E+04
 1.9143724E+01  5.9934621E+04
 1.9183733E+01  5.5704578E+04
 1.9223742E+01  5.2871602E+04
 1.9263748E+01  5.1041621E+04
 1.9303757E+01  5.0019750E+04
 1.9343763E+01  4.9730328E+04
 1.9383772E+01  5.0169840E+04
 1.9423780E+01  5.1406914E+04
 1.9463787E+01  5.3630164E+04
 1.9503796E+01  5.7087020E+04
 1.9543802E+01  6.2281730E+04
 1.9583811E+01  7.0063070E+04
 1.9623819E+01  8.1400703E+04
 1.9663826E+01  9.7254398E+04
 1.9703835E+01  1.1727077E+05
 1.9743841E+01  1.3796327E+05
 1.9783850E+01  1.5255297E+05
 1.9823858E+01  1.5490623E+05
 1.9863865E+01  1.4383794E+05
 1.9903873E+01  1.2444952E+05
 1.9943880E+01  1.0366802E+05
 1.9983889E+01  8.6113758E+04
 2.0023897E+01  7.3285969E+04
 2.0063904E+01  6.4706324E+04
 2.0103912E+01  5.9420164E+04
 2.0143919E+01  5.6726605E+04
 2.0183928E+01  5.6039312E+04
 2.0223936E+01  5.7143527E+04
 2.0263943E+01  6.0133711E+04
 2.0303951E+01  6.5439633E+04
 2.0343958E+01  7.3958812E+04
 2.0383966E+01  8.7012633E+04
 2.0423975E+01  1.0585380E+05
 2.0463982E+01  1.2934952E+05
 2.0503990E+01  1.5252859E+05
 2.0543997E+01  1.6815533E+05
 2.0584005E+01  1.7206236E+05
 2.0624014E+01  1.6739925E+05
 2.0664021E+01  1.6163419E+05
 2.0704029E+01  1.5973200E+05
 2.0744036E+01  1.5995477E+05
 2.0784044E+01  1.5647041E+05
 2.0824053E+01  1.4482894E+05
 2.0864059E+01  1.2601804E+05
 2.0904068E+01  1.0487950E+05
 2.0944075E+01  8.5851117E+04
 2.0984083E+01  7.1022188E+04
 2.1024092E+01  6.0272164E+04
 2.1064098E+01  5.2725664E+04
 2.1104107E+01  4.7533332E+04
 2.1144114E+01  4.3944441E+04
 2.1184122E+01  4.1454039E+04
 2.1224131E+01  3.9751934E+04
 2.1264137E+01  3.8644164E+04
 2.1304146E+01  3.8007551E+04
 2.1344152E+01  3.7790305E+04
 2.1384161E+01  3.7944289E+04
 2.1424170E+01  3.8466824E+04
 2.1464176E+01  3.9508332E+04
 2.1504185E+01  4.1261730E+04
 2.1544191E+01  4.4079395E+04
 2.1584200E+01  4.8226871E+04
 2.1624208E+01  5.3714465E+04
 2.1664215E+01  5.9654523E+04
 2.1704224E+01  6.4100008E+04
 2.1744230E+01  6.5267711E+04
 2.1784239E+01  6.3010148E+04
 2.1824247E+01  5.8807250E+04
 2.1864254E+01  5.4648062E+04
 2.1904263E+01  5.1771500E+04
 2.1944269E+01  5.0589137E+04
 2.1984278E+01  5.1023141E+04
 2.2024286E+01  5.2953117E+04
 2.2064293E+01  5.6468434E+04
 2.2104301E+01  6.1801703E+04
 2.2144308E+01  6.9518875E+04
 2.2184317E+01  8.0482031E+04
 2.2224325E+01  9.5913984E+04
 2.2264332E+01  1.1679788E+05
 2.2304340E+01  1.4226577E+05
 2.2344347E+01  1.6802980E+05
 2.2384356E+01  1.8701034E+05
 2.2424364E+01  1.9351191E+05
 2.2464371E+01  1.8801320E+05
 2.2504379E+01  1.7648350E+05
 2.2544386E+01  1.6497216E+05
 2.2584394E+01  1.5504323E+05
 2.2624403E+01  1.4437620E+05
 2.2664410E+01  1.3060118E+05
 2.2704418E+01  1.1399409E+05
 2.2744425E+01  9.7154195E+04
 2.2784433E+01  8.2539234E+04
 2.2824442E+01  7.1175070E+04
 2.2864449E+01  6.2966453E+04
 2.2904457E+01  5.7359059E+04
 2.2944464E+01  5.3716676E+04
 2.2984472E+01  5.1579266E+04
 2.3024481E+01  5.0632711E+04
 2.3064487E+01  5.0668047E+04
 2.3104496E+01  5.1659762E+04
 2.3144505E+01  5.3711535E+04
 2.3184511E+01  5.7050793E+04
 2.3224520E+01  6.2080637E+04
 2.3264526E+01  6.9509398E+04
 2.3304535E+01  8.0392469E+04
 2.3344543E+01  9.5631445E+04
 2.3384550E+01  1.1496034E+05
 2.3424559E+01  1.3546597E+05
 2.3464565E+01  1.5098477E+05
 2.3504574E+01  1.5550103E+05
 2.3544582E+01  1.4758144E+05
 2.3584589E+01  1.3128586E+05
 2.3624598E+01  1.1281916E+05
 2.3664604E+01  9.6907305E+04
 2.3704613E+01  8.5422938E+04
 2.3744621E+01  7.8426109E+04
 2.3784628E+01  7.5453742E+04
 2.3824636E+01  7.6128562E+04
 2.3864643E+01  8.0392992E+04
 2.3904652E+01  8.8821180E+04
 2.3944660E+01  1.0227565E+05
 2.3984667E+01  1.2128152E+05
 2.4024675E+01  1.4450164E+05
 2.4064682E+01  1.6706570E+05
 2.4104691E+01  1.8124586E+05
 2.4144699E+01  1.8097166E+05
 2.4184706E+01  1.6616653E+05
 2.4224714E+01  1.4263580E+05
 2.4264721E+01  1.1759494E+05
 2.4304729E+01  9.5862680E+04
 2.4344738E+01  7.8897445E+04
 2.4384745E+01  6.6310758E+04
 2.4424753E+01  5.7222371E+04
 2.4464760E+01  5.0747250E+04
 2.4504768E+01  4.6025840E+04
 2.4544777E+01  4.2563027E+04
 2.4584784E+01  4.0009527E+04
 2.4624792E+01  3.8135164E+04
 2.4664799E+01  3.6747312E+04
 2.4704807E+01  3.5720402E+04
 2.4744816E+01  3.4994023E+04
 2.4784822E+01  3.4533859E+04
 2.4824831E+01  3.4350961E+04
 2.4864838E+01  3.4452586E+04
 2.4904846E+01  3.4815070E+04
 2.4944855E+01  3.5504125E+04
 2.4984861E+01  3.6488914E+04
 2.5024870E+01  3.7730508E+04
 2.5064877E+01  3.9057031E+04
 2.5104885E+01  4.0134820E+04
 2.5144894E+01  4.0670359E+04
 2.5184900E+01  4.0601074E+04
 2.5224909E+01  4.0124266E+04
 2.5264915E+01  3.9596680E+04
 2.5304924E+01  3.9346145E+04
 2.5344933E+01  3.9584801E+04
 2.5384939E+01  4.0428246E+04
 2.5424948E+01  4.1985348E+04
 2.5464954E+01  4.4392949E+04
 2.5504963E+01  4.7870098E+04
 2.5544971E+01  5.2752688E+04
 2.5584978E+01  5.9308926E+04
 2.5624987E+01  6.7542883E+04
 2.5664993E+01  7.6822930E+04
 2.5705002E+01  8.6041062E+04
 2.5745010E+01  9.4106133E+04
 2.5785017E+01  1.0089250E+05
 2.5825026E+01  1.0684632E+05
 2.5865032E+01  1.1164384E+05
 2.5905041E+01  1.1360626E+05
 2.5945049E+01  1.1061012E+05
 2.5985056E+01  1.0229985E+05
 2.6025064E+01  9.0705711E+04
 2.6065071E+01  7.8518680E+04
 2.6105080E+01  6.7810031E+04
 2.6145088E+01  5.9431918E+04
 2.6185095E+01  5.3355531E+04
 2.6225103E+01  4.9137461E+04
 2.6265110E+01  4.6422535E+04
 2.6305119E+01  4.4877918E+04
 2.6345127E+01  4.4364863E+04
 2.6385134E+01  4.4779766E+04
 2.6425142E+01  4.6160551E+04
 2.6465149E+01  4.8614402E+04
 2.6505157E+01  5.2372988E+04
 2.6545166E+01  5.7524336E+04
 2.6585173E+01  6.3830941E+04
 2.6625181E+01  7.0285117E+04
 2.6665188E+01  7.5148945E+04
 2.6705196E+01  7.6880445E+04
 2.6745205E+01  7.5049617E+04
 2.6785212E+01  7.0627281E+04
 2.6825220E+01  6.5323375E+04
 2.6865227E+01  6.0700027E+04
 2.6905235E+01  5.7532145E+04
 2.6945244E+01  5.6108992E+04
 2.6985250E+01  5.6543504E+04
 2.7025259E+01  5.9005367E+04
 2.7065266E+01  6.3765520E+04
 2.7105274E+01  7.1081547E+04
 2.7145283E+01  8.0721312E+04
 2.7185289E+01  9.1358078E+04
 2.7225298E+01  1.0055221E+05
 2.7265305E+01  1.0585136E+05
 2.7305313E+01  1.0621988E+05
 2.7345322E+01  1.0264993E+05
 2.7385328E+01  9.6938188E+04
 2.7425337E+01  9.0244664E+04
 2.7465343E+01  8.2763492E+04
 2.7505352E+01  7.4705211E+04
 2.7545361E+01  6.6580008E+04
 2.7585367E+01  5.9202586E+04
 2.7625376E+01  5.3161020E+04
 2.7665382E+01  4.8537625E+04
 2.7705391E+01  4.5169605E+04
 2.7745399E+01  4.2840191E+04
 2.7785406E+01  4.1387375E+04
 2.7825415E+01  4.0656723E+04
 2.7865421E+01  4.0559512E+04
 2.7905430E+01  4.1109391E+04
 2.7945438E+01  4.2308012E+04
 2.7985445E+01  4.4245480E+04
 2.8025454E+01  4.6960188E+04
 2.8065460E+01  5.0255016E+04
 2.8105469E+01  5.3593473E+04
 2.8145477E+01  5.6146453E+04
 2.8185484E+01  5.7256242E+04
 2.8225492E+01  5.6857305E+04
 2.8265501E+01  5.5503609E+04
 2.8305508E+01  5.4044793E+04
 2.8345516E+01  5.3202473E+04
 2.8385523E+01  5.3489383E+04
 2.8425531E+01  5.5202367E+04
 2.8465540E+01  5.8557082E+04
 2.8505547E+01  6.3858422E+04
 2.8545555E+01  7.1366797E+04
 2.8585562E+01  8.0960617E+04
 2.8625570E+01  9.1723648E+04
 2.8665579E+01  1.0170162E+05
 2.8705585E+01  1.0868851E+05
 2.8745594E+01  1.1156960E+05
 2.8785601E+01  1.1066403E+05
 2.8825609E+01  1.0706109E+05
 2.8865618E+01  1.0144823E+05
 2.8905624E+01  9.3918367E+04
 2.8945633E+01  8.4880852E+04
 2.8985640E+01  7.5278008E+04
 2.9025648E+01  6.6257828E+04
 2.9065657E+01  5.8562301E+04
 2.9105663E+01  5.2467289E+04
 2.9145672E+01  4.7807484E+04
 2.9185678E+01  4.4367156E+04
 2.9225687E+01  4.1936723E+04
 2.9265696E+01  4.0403906E+04
 2.9305702E+01  3.9606074E+04
 2.9345711E+01  3.9531883E+04
 2.9385717E+01  4.0185898E+04
 2.9425726E+01  4.1635227E+04
 2.9465734E+01  4.3808672E+04
 2.9505741E+01  4.6295082E+04
 2.9545750E+01  4.8361531E+04
 2.9585756E+01  4.9306949E+04
 2.9625765E+01  4.8777414E+04
 2.9665773E+01  4.7089777E+04
 2.9705780E+01  4.4994828E+04
 2.9745789E+01  4.3201738E+04
 2.9785795E+01  4.2147145E+04
 2.9825804E+01  4.1984395E+04
 2.9865812E+01  4.2806227E+04
 2.9905819E+01  4.4609410E+04
 2.9945827E+01  4.7303027E+04
 2.9985834E+01  5.0549141E+04
 3.0025843E+01  5.3606469E+04
 3.0065851E+01  5.5534121E+04
 3.0105858E+01  5.5626941E+04
 3.0145866E+01  5.3714098E+04
 3.0185873E+01  5.0356309E+04
 3.0225882E+01  4.6428555E+04
 3.0265890E+01  4.2651070E+04
 3.0305897E+01  3.9416043E+04
 3.0345905E+01  3.6858152E+04
 3.0385912E+01  3.4905773E+04
 3.0425920E+01  3.3494875E+04
 3.0465929E+01  3.2521664E+04
 3.0505936E+01  3.1914457E+04
 3.0545944E+01  3.1649254E+04
 3.0585951E+01  3.1673451E+04
 3.0625959E+01  3.1981285E+04
 3.0665968E+01  3.2625270E+04
 3.0705975E+01  3.3646785E+04
 3.0745983E+01  3.5071836E+04
 3.0785990E+01  3.6989453E+04
 3.0825998E+01  3.9260332E+04
 3.0866007E+01  4.1562254E+04
 3.0906013E+01  4.3389832E+04
 3.0946022E+01  4.4390691E+04
 3.0986029E+01  4.4506508E+04
 3.1026037E+01  4.4069855E+04
 3.1066046E+01  4.3616211E+04
 3.1106052E+01  4.3616332E+04
 3.1146061E+01  4.4401805E+04
 3.1186068E+01  4.6217777E+04
 3.1226076E+01  4.9284133E+04
 3.1266085E+01  5.3682965E+04
 3.1306091E+01  5.9271766E+04
 3.1346100E+01  6.5384754E+04
 3.1386106E+01  7.0823422E+04
 3.1426115E+01  7.4250297E+04
 3.1466124E+01  7.5029719E+04
 3.1506130E+01  7.3410180E+04
 3.1546139E+01  7.0108945E+04
 3.1586145E+01  6.5876484E+04
 3.1626154E+01  6.1233660E+04
 3.1666162E+01  5.6532512E+04
 3.1706169E+01  5.2169199E+04
 3.1746178E+01  4.8498371E+04
 3.1786184E+01  4.5676152E+04
 3.1826193E+01  4.3728367E+04
 3.1866201E+01  4.2630703E+04
 3.1906208E+01  4.2313012E+04
 3.1946217E+01  4.2780004E+04
 3.1986223E+01  4.4094289E+04
 3.2026234E+01  4.6318309E+04
 3.2066238E+01  4.9482855E+04
 3.2106247E+01  5.3438973E+04
 3.2146255E+01  5.7663070E+04
 3.2186264E+01  6.1254129E+04
 3.2226273E+01  6.3280410E+04
 3.2266277E+01  6.3171156E+04
 3.2306286E+01  6.1223520E+04
 3.2346294E+01  5.8351355E+04
 3.2386303E+01  5.5511273E+04
 3.2426311E+01  5.3434992E+04
 3.2466316E+01  5.2532375E+04
 3.2506325E+01  5.3001738E+04
 3.2546333E+01  5.4818250E+04
 3.2586342E+01  5.7815352E+04
 3.2626350E+01  6.1432246E+04
 3.2666355E+01  6.4758355E+04
 3.2706364E+01  6.6814875E+04
 3.2746372E+01  6.6998242E+04
 3.2786381E+01  6.5355328E+04
 3.2826389E+01  6.2295668E+04
 3.2866394E+01  5.8388352E+04
 3.2906403E+01  5.4022789E+04
 3.2946411E+01  4.9574102E+04
 3.2986420E+01  4.5408016E+04
 3.3026428E+01  4.1774352E+04
 3.3066433E+01  3.8746969E+04
 3.3106441E+01  3.6343867E+04
 3.3146450E+01  3.4450203E+04
 3.3186459E+01  3.2985238E+04
 3.3226467E+01  3.1884604E+04
 3.3266472E+01  3.1064174E+04
 3.3306480E+01  3.0488064E+04
 3.3346489E+01  3.0126887E+04
 3.3386497E+01  2.9912475E+04
 3.3426506E+01  2.9888996E+04
 3.3466511E+01  3.0040463E+04
 3.3506519E+01  3.0351730E+04
 3.3546528E+01  3.0855441E+04
 3.3586536E+01  3.1588119E+04
 3.3626545E+01  3.2590518E+04
 3.3666550E+01  3.3930055E+04
 3.3706558E+01  3.5687848E+04
 3.3746567E+01  3.7975699E+04
 3.3786575E+01  4.0851008E+04
 3.3826584E+01  4.4307312E+04
 3.3866589E+01  4.8223289E+04
 3.3906597E+01  5.2190270E+04
 3.3946606E+01  5.5772590E+04
 3.3986614E+01  5.8608434E+04
 3.4026623E+01  6.0368094E+04
 3.4066628E+01  6.0773023E+04
 3.4106636E+01  5.9604102E+04
 3.4146645E+01  5.6901262E+04
 3.4186653E+01  5.3168883E+04
 3.4226662E+01  4.9113875E+04
 3.4266666E+01  4.5332887E+04
 3.4306675E+01  4.2200672E+04
 3.4346684E+01  3.9805906E+04
 3.4386692E+01  3.8118039E+04
 3.4426701E+01  3.7138000E+04
 3.4466705E+01  3.6777035E+04
 3.4506714E+01  3.7036824E+04
 3.4546722E+01  3.7764777E+04
 3.4586731E+01  3.8858590E+04
 3.4626740E+01  4.0031625E+04
 3.4666744E+01  4.0903879E+04
 3.4706753E+01  4.1148602E+04
 3.4746761E+01  4.0669289E+04
 3.4786770E+01  3.9669543E+04
 3.4826778E+01  3.8436652E+04
 3.4866783E+01  3.7322727E+04
 3.4906792E+01  3.6617441E+04
 3.4946800E+01  3.6393844E+04
 3.4986809E+01  3.6669480E+04
 3.5026817E+01  3.7378805E+04
 3.5066822E+01  3.8222121E+04
 3.5106831E+01  3.8858840E+04
 3.5146839E+01  3.8920086E+04
 3.5186848E+01  3.8238074E+04
 3.5226856E+01  3.6914410E+04
 3.5266861E+01  3.5221863E+04
 3.5306870E+01  3.3468402E+04
 3.5346878E+01  3.1913174E+04
 3.5386887E+01  3.0654980E+04
 3.5426895E+01  2.9675785E+04
 3.5466900E+01  2.8982834E+04
 3.5506908E+01  2.8490824E+04
 3.5546917E+01  2.8202203E+04
 3.5586926E+01  2.8150529E+04
 3.5626934E+01  2.8264207E+04
 3.5666939E+01  2.8562020E+04
 3.5706947E+01  2.9027779E+04
 3.5746956E+01  2.9686598E+04
 3.5786964E+01  3.0497051E+04
 3.5826973E+01  3.1410209E+04
 3.5866978E+01  3.2368795E+04
 3.5906986E+01  3.3318098E+04
 3.5946995E+01  3.4294465E+04
 3.5987003E+01  3.5452410E+04
 3.6027012E+01  3.6907605E+04
 3.6067017E+01  3.8846875E+04
 3.6107025E+01  4.1383645E+04
 3.6147034E+01  4.4600344E+04
 3.6187042E+01  4.8367039E+04
 3.6227051E+01  5.2430262E+04
 3.6267056E+01  5.6128723E+04
 3.6307064E+01  5.8809066E+04
 3.6347073E+01  5.9961613E+04
 3.6387081E+01  5.9507605E+04
 3.6427090E+01  5.7689668E+04
 3.6467094E+01  5.4938922E+04
 3.6507103E+01  5.1621219E+04
 3.6547112E+01  4.8147211E+04
 3.6587120E+01  4.4866230E+04
 3.6627129E+01  4.2020320E+04
 3.6667133E+01  3.9732219E+04
 3.6707142E+01  3.8057355E+04
 3.6747150E+01  3.6923840E+04
 3.6787159E+01  3.6311820E+04
 3.6827168E+01  3.6231953E+04
 3.6867172E+01  3.6620125E+04
 3.6907181E+01  3.7396770E+04
 3.6947189E+01  3.8359141E+04
 3.6987198E+01  3.9270734E+04
 3.7027206E+01  3.9809969E+04
 3.7067211E+01  3.9856215E+04
 3.7107220E+01  3.9560641E+04
 3.7147228E+01  3.9085992E+04
 3.7187237E+01  3.8782137E+04
 3.7227245E+01  3.8882164E+04
 3.7267250E+01  3.9508816E+04
 3.7307259E+01  4.0706844E+04
 3.7347267E+01  4.2325586E+04
 3.7387276E+01  4.4089258E+04
 3.7427284E+01  4.5628453E+04
 3.7467289E+01  4.6625059E+04
 3.7507298E+01  4.6821684E+04
 3.7547306E+01  4.6148902E+04
 3.7587315E+01  4.4832957E+04
 3.7627323E+01  4.2958867E+04
 3.7667328E+01  4.0764664E+04
 3.7707336E+01  3.8554871E+04
 3.7747345E+01  3.6490375E+04
 3.7787354E+01  3.4731621E+04
 3.7827362E+01  3.3340719E+04
 3.7867367E+01  3.2322305E+04
 3.7907375E+01  3.1639686E+04
 3.7947384E+01  3.1317713E+04
 3.7987392E+01  3.1313521E+04
 3.8027401E+01  3.1512615E+04
 3.8067406E+01  3.1861643E+04
 3.8107414E+01  3.2243824E+04
 3.8147423E+01  3.2477816E+04
 3.8187431E+01  3.2490883E+04
 3.8227440E+01  3.2373391E+04
 3.8267445E+01  3.2222488E+04
 3.8307453E+01  3.2191693E+04
 3.8347462E+01  3.2413924E+04
 3.8387470E+01  3.2951223E+04
 3.8427479E+01  3.3756777E+04
 3.8467484E+01  3.4668160E+04
 3.8507492E+01  3.5528805E+04
 3.8547501E+01  3.6126297E+04
 3.8587509E+01  3.6283297E+04
 3.8627518E+01  3.5981496E+04
 3.8667522E+01  3.5305281E+04
 3.8707531E+01  3.4385480E+04
 3.8747540E+01  3.3495363E+04
 3.8787548E+01  3.2441037E+04
 3.8827557E+01  3.1632988E+04
 3.8867561E+01  3.1041963E+04
 3.8907570E+01  3.0713557E+04
 3.8947578E+01  3.0636619E+04
 3.8987587E+01  3.0879963E+04
 3.9027596E+01  3.1438498E+04
 3.9067600E+01  3.2289695E+04
 3.9107609E+01  3.3335914E+04
 3.9147617E+01  3.4530637E+04
 3.9187626E+01  3.5604422E+04
 3.9227634E+01  3.6320574E+04
 3.9267639E+01  3.6577352E+04
 3.9307648E+01  3.6425156E+04
 3.9347656E+01  3.6058637E+04
 3.9387665E+01  3.5728586E+04
 3.9427673E+01  3.5655945E+04
 3.9467678E+01  3.5997246E+04
 3.9507687E+01  3.6669410E+04
 3.9547695E+01  3.7557250E+04
 3.9587704E+01  3.8343473E+04
 3.9627712E+01  3.8676270E+04
 3.9667717E+01  3.8269777E+04
 3.9707726E+01  3.7188672E+04
 3.9747734E+01  3.5635977E+04
 3.9787743E+01  3.3902719E+04
 3.9827751E+01  3.2231410E+04
 3.9867756E+01  3.0783625E+04
 3.9907764E+01  2.9616699E+04
 3.9947773E+01  2.8682129E+04
 3.9987782E+01  2.7993801E+04
 4.0027790E+01  2.7497914E+04
 4.0067795E+01  2.7247859E+04
 4.0107803E+01  2.7129826E+04
 4.0147812E+01  2.7188693E+04
 4.0187820E+01  2.7328357E+04
 4.0227829E+01  2.7550305E+04
 4.0267834E+01  2.7777076E+04
 4.0307842E+01  2.7992389E+04
 4.0347851E+01  2.8147273E+04
 4.0387859E+01  2.8296314E+04
 4.0427868E+01  2.8500219E+04
 4.0467873E+01  2.8814270E+04
 4.0507881E+01  2.9334664E+04
 4.0547890E+01  3.0110131E+04
 4.0587898E+01  3.1087045E+04
 4.0627907E+01  3.2283629E+04
 4.0667912E+01  3.3643145E+04
 4.0707920E+01  3.5025602E+04
 4.0747929E+01  3.6212738E+04
 4.0787937E+01  3.7000785E+04
 4.0827946E+01  3.7218070E+04
 4.0867950E+01  3.6837125E+04
 4.0907959E+01  3.5954434E+04
 4.0947968E+01  3.4782559E+04
 4.0987976E+01  3.3572977E+04
 4.1027985E+01  3.2524777E+04
 4.1067993E+01  3.1734279E+04
 4.1107998E+01  3.1219432E+04
 4.1148006E+01  3.1007254E+04
 4.1188015E+01  3.1098270E+04
 4.1228024E+01  3.1440676E+04
 4.1268032E+01  3.1933408E+04
 4.1308037E+01  3.2418387E+04
 4.1348045E+01  3.2844242E+04
 4.1388054E+01  3.3146820E+04
 4.1428062E+01  3.3365953E+04
 4.1468071E+01  3.3578523E+04
 4.1508076E+01  3.3938723E+04
 4.1548084E+01  3.4563379E+04
 4.1588093E+01  3.5458891E+04
 4.1628101E+01  3.6514375E+04
 4.1668110E+01  3.7559008E+04
 4.1708115E+01  3.8377117E+04
 4.1748123E+01  3.8688633E+04
 4.1788132E+01  3.8396363E+04
 4.1828140E+01  3.7562105E+04
 4.1868149E+01  3.6375457E+04
 4.1908154E+01  3.4964047E+04
 4.1948162E+01  3.3531309E+04
 4.1988171E+01  3.2226613E+04
 4.2028179E+01  3.1118465E+04
 4.2068188E+01  3.0235596E+04
 4.2108192E+01  2.9586699E+04
 4.2148201E+01  2.9140627E+04
 4.2188210E+01  2.8898979E+04
 4.2228218E+01  2.8849502E+04
 4.2268227E+01  2.8963994E+04
 4.2308231E+01  2.9168373E+04
 4.2348240E+01  2.9436092E+04
 4.2388248E+01  2.9760266E+04
 4.2428257E+01  3.0181207E+04
 4.2468266E+01  3.0695236E+04
 4.2508270E+01  3.1378275E+04
 4.2548279E+01  3.2276957E+04
 4.2588287E+01  3.3429633E+04
 4.2628296E+01  3.4797203E+04
 4.2668304E+01  3.6234230E+04
 4.2708309E+01  3.7563727E+04
 4.2748318E+01  3.8558816E+04
 4.2788326E+01  3.9028363E+04
 4.2828335E+01  3.8915699E+04
 4.2868343E+01  3.8218699E+04
 4.2908348E+01  3.7081215E+04
 4.2948357E+01  3.5656199E+04
 4.2988365E+01  3.4132992E+04
 4.3028374E+01  3.2649658E+04
 4.3068382E+01  3.1388205E+04
 4.3108387E+01  3.0348396E+04
 4.3148396E+01  2.9570723E+04
 4.3188404E+01  2.9017727E+04
 4.3228413E+01  2.8653594E+04
 4.3268421E+01  2.8475852E+04
 4.3308426E+01  2.8371248E+04
 4.3348434E+01  2.8288906E+04
 4.3388443E+01  2.8083406E+04
 4.3428452E+01  2.7844105E+04
 4.3468460E+01  2.7514898E+04
 4.3508465E+01  2.7184904E+04
 4.3548473E+01  2.6910914E+04
 4.3588482E+01  2.6776773E+04
 4.3628490E+01  2.6690803E+04
 4.3668499E+01  2.6630262E+04
 4.3708504E+01  2.6578855E+04
 4.3748512E+01  2.6455037E+04
 4.3788521E+01  2.6169307E+04
 4.3828529E+01  2.5731367E+04
 4.3868538E+01  2.5259213E+04
 4.3908543E+01  2.4766785E+04
 4.3948551E+01  2.4337385E+04
 4.3988560E+01  2.3954346E+04
 4.4028568E+01  2.3689396E+04
 4.4068577E+01  2.3511383E+04
 4.4108582E+01  2.3404209E+04
 4.4148590E+01  2.3392086E+04
 4.4188599E+01  2.3430650E+04
 4.4228607E+01  2.3540615E+04
 4.4268616E+01  2.3788354E+04
 4.4308620E+01  2.4059279E+04
 4.4348629E+01  2.4394658E+04
 4.4388638E+01  2.4775844E+04
 4.4428646E+01  2.5211932E+04
 4.4468655E+01  2.5755059E+04
 4.4508659E+01  2.6427936E+04
 4.4548668E+01  2.7217602E+04
 4.4588676E+01  2.8165994E+04
 4.4628685E+01  2.9166508E+04
 4.4668694E+01  3.0140213E+04
 4.4708698E+01  3.0919209E+04
 4.4748707E+01  3.1469791E+04
 4.4788715E+01  3.1632641E+04
 4.4828724E+01  3.1477570E+04
 4.4868732E+01  3.1080293E+04
 4.4908737E+01  3.0501014E+04
 4.4948746E+01  2.9890746E+04
 4.4988754E+01  2.9304465E+04
 4.5028763E+01  2.8817264E+04
 4.5068771E+01  2.8535934E+04
 4.5108776E+01  2.8425781E+04
 4.5148785E+01  2.8525047E+04
 4.5188793E+01  2.8816283E+04
 4.5228802E+01  2.9192889E+04
 4.5268810E+01  2.9645246E+04
 4.5308815E+01  3.0042918E+04
 4.5348824E+01  3.0261822E+04
 4.5388832E+01  3.0302941E+04
 4.5428841E+01  3.0256244E+04
 4.5468849E+01  3.0237514E+04
 4.5508854E+01  3.0238523E+04
 4.5548862E+01  3.0436934E+04
 4.5588871E+01  3.0724566E+04
 4.5628880E+01  3.1069736E+04
 4.5668888E+01  3.1287834E+04
 4.5708893E+01  3.1369518E+04
 4.5748901E+01  3.1174705E+04
 4.5788910E+01  3.0761904E+04
 4.5828918E+01  3.0119447E+04
 4.5868927E+01  2.9385645E+04
 4.5908932E+01  2.8593652E+04
 4.5948940E+01  2.7818889E+04
 4.5988949E+01  2.7154113E+04
 4.6028957E+01  2.6627717E+04
 4.6068966E+01  2.6213732E+04
 4.6108971E+01  2.5934902E+04
 4.6148979E+01  2.5772094E+04
 4.6188988E+01  2.5709244E+04
 4.6228996E+01  2.5709770E+04
 4.6269005E+01  2.5773062E+04
 4.6309010E+01  2.5888883E+04
 4.6349018E+01  2.6034629E+04
 4.6389027E+01  2.6282273E+04
 4.6429035E+01  2.6588318E+04
 4.6469044E+01  2.7009820E+04
 4.6509048E+01  2.7583330E+04
 4.6549057E+01  2.8214992E+04
 4.6589066E+01  2.8837965E+04
 4.6629074E+01  2.9372031E+04
 4.6669083E+01  2.9747309E+04
 4.6709087E+01  2.9909168E+04
 4.6749096E+01  2.9812971E+04
 4.6789104E+01  2.9499895E+04
 4.6829113E+01  2.9060789E+04
 4.6869122E+01  2.8587676E+04
 4.6909126E+01  2.8130979E+04
 4.6949135E+01  2.7775283E+04
 4.6989143E+01  2.7543092E+04
 4.7029152E+01  2.7480262E+04
 4.7069160E+01  2.7579916E+04
 4.7109165E+01  2.7730459E+04
 4.7149174E+01  2.7969334E+04
 4.7189182E+01  2.8162881E+04
 4.7229191E+01  2.8291674E+04
 4.7269199E+01  2.8251775E+04
 4.7309204E+01  2.8126635E+04
 4.7349213E+01  2.7951494E+04
 4.7389221E+01  2.7809607E+04
 4.7429230E+01  2.7721939E+04
 4.7469238E+01  2.7714793E+04
 4.7509243E+01  2.7704850E+04
 4.7549252E+01  2.7572420E+04
 4.7589260E+01  2.7382170E+04
 4.7629269E+01  2.7039584E+04
 4.7669277E+01  2.6568039E+04
 4.7709282E+01  2.6017951E+04
 4.7749290E+01  2.5509910E+04
 4.7789299E+01  2.5018074E+04
 4.7829308E+01  2.4604033E+04
 4.7869316E+01  2.4281383E+04
 4.7909321E+01  2.4078109E+04
 4.7949329E+01  2.4008547E+04
 4.7989338E+01  2.4077268E+04
 4.8029346E+01  2.4142699E+04
 4.8069355E+01  2.4309371E+04
 4.8109360E+01  2.4429008E+04
 4.8149368E+01  2.4605023E+04
 4.8189377E+01  2.4963760E+04
 4.8229385E+01  2.5238035E+04
 4.8269394E+01  2.5530549E+04
 4.8309399E+01  2.5859703E+04
 4.8349407E+01  2.6249811E+04
 4.8389416E+01  2.6676859E+04
 4.8429424E+01  2.7142051E+04
 4.8469433E+01  2.7418141E+04
 4.8509438E+01  2.7563262E+04
 4.8549446E+01  2.7269193E+04
 4.8589455E+01  2.6951658E+04
 4.8629463E+01  2.6408506E+04
 4.8669472E+01  2.5785977E+04
 4.8709476E+01  2.5114758E+04
 4.8749485E+01  2.4448732E+04
 4.8789494E+01  2.3729635E+04
 4.8829502E+01  2.3329605E+04
 4.8869511E+01  2.3022365E+04
 4.8909515E+01  2.2794676E+04
 4.8949524E+01  2.2573549E+04
 4.8989532E+01  2.2456006E+04
 4.9029541E+01  2.2342842E+04
 4.9069550E+01  2.2270992E+04
 4.9109554E+01  2.2270818E+04
 4.9149563E+01  2.2245617E+04
 4.9189571E+01  2.2326252E+04
 4.9229580E+01  2.2432312E+04
 4.9269588E+01  2.2595748E+04
 4.9309593E+01  2.2755258E+04
 4.9349602E+01  2.2912900E+04
 4.9389610E+01  2.3019637E+04
 4.9429619E+01  2.3109201E+04
 4.9469627E+01  2.3070221E+04
 4.9509632E+01  2.2882273E+04
 4.9549641E+01  2.2681555E+04
 4.9589649E+01  2.2452674E+04
 4.9629658E+01  2.2359990E+04
 4.9669666E+01  2.2147740E+04
 4.9709671E+01  2.1832617E+04
 4.9749680E+01  2.1601004E+04
 4.9789688E+01  2.1487666E+04
 4.9829697E+01  2.1355994E+04
 4.9869705E+01  2.1357809E+04
 4.9909710E+01  2.1418275E+04
 4.9949718E+01  2.1511865E+04
 4.9989727E+01  2.1752008E+04
 5.0029736E+01  2.1996691E+04
 5.0069744E+01  2.2316139E+04
 5.0109749E+01  2.2772879E+04
 5.0149757E+01  2.3272338E+04
 5.0189766E+01  2.3828248E+04
 5.0229774E+01  2.4384330E+04
 5.0269783E+01  2.4865383E+04
 5.0309788E+01  2.5261531E+04
 5.0349796E+01  2.5543293E+04
 5.0389805E+01  2.5615475E+04
 5.0429813E+01  2.5555035E+04
 5.0469822E+01  2.5345871E+04
 5.0509827E+01  2.5054328E+04
 5.0549835E+01  2.4791490E+04
 5.0589844E+01  2.4601139E+04
 5.0629852E+01  2.4499107E+04
 5.0669861E+01  2.4504820E+04
 5.0709866E+01  2.4532918E+04
 5.0749874E+01  2.4678768E+04
 5.0789883E+01  2.4871059E+04
 5.0829891E+01  2.5071555E+04
 5.0869900E+01  2.5162654E+04
 5.0909904E+01  2.5242891E+04
 5.0949913E+01  2.5382367E+04
 5.0989922E+01  2.5468291E+04
 5.1029930E+01  2.5605066E+04
 5.1069939E+01  2.5715633E+04
 5.1109943E+01  2.5768301E+04
 5.1149952E+01  2.5846998E+04
 5.1189960E+01  2.5756037E+04
 5.1229969E+01  2.5479875E+04
 5.1269978E+01  2.5053018E+04
 5.1309986E+01  2.4548018E+04
 5.1349991E+01  2.3997301E+04
 5.1389999E+01  2.3432129E+04
 5.1430008E+01  2.2949150E+04
 5.1470016E+01  2.2579096E+04
 5.1510025E+01  2.2244688E+04
 5.1550030E+01  2.2004844E+04
 5.1590038E+01  2.1822045E+04
 5.1630047E+01  2.1666963E+04
 5.1670055E+01  2.1703432E+04
 5.1710064E+01  2.1704373E+04
 5.1750069E+01  2.1773881E+04
 5.1790077E+01  2.1893969E+04
 5.1830086E+01  2.2090500E+04
 5.1870094E+01  2.2401912E+04
 5.1910103E+01  2.2698033E+04
 5.1950108E+01  2.3001236E+04
 5.1990116E+01  2.3443766E+04
 5.2030125E+01  2.3711090E+04
 5.2070133E+01  2.4003844E+04
 5.2110142E+01  2.4169721E+04
 5.2150146E+01  2.4253008E+04
 5.2190155E+01  2.4058330E+04
 5.2230164E+01  2.3888828E+04
 5.2270172E+01  2.3577121E+04
 5.2310181E+01  2.3320285E+04
 5.2350185E+01  2.3046305E+04
 5.2390194E+01  2.2872682E+04
 5.2430202E+01  2.2769420E+04
 5.2470211E+01  2.2685904E+04
 5.2510220E+01  2.2660488E+04
 5.2550224E+01  2.2668902E+04
 5.2590233E+01  2.2609043E+04
 5.2630241E+01  2.2567617E+04
 5.2670250E+01  2.2369178E+04
 5.2710258E+01  2.2165836E+04
 5.2750263E+01  2.1996469E+04
 5.2790272E+01  2.1863398E+04
 5.2830280E+01  2.1835408E+04
 5.2870289E+01  2.1709225E+04
 5.2910297E+01  2.1606621E+04
 5.2950302E+01  2.1482135E+04
 5.2990311E+01  2.1400148E+04
 5.3030319E+01  2.1223549E+04
 5.3070328E+01  2.1092830E+04
 5.3110336E+01  2.0905701E+04
 5.3150341E+01  2.0769512E+04
 5.3190350E+01  2.0644988E+04
 5.3230358E+01  2.0593770E+04
 5.3270367E+01  2.0621912E+04
 5.3310375E+01  2.0695158E+04
 5.3350380E+01  2.0830035E+04
 5.3390388E+01  2.0878547E+04
 5.3430397E+01  2.0992443E+04
 5.3470406E+01  2.1153344E+04
 5.3510414E+01  2.1360436E+04
 5.3550419E+01  2.1564572E+04
 5.3590427E+01  2.1726066E+04
 5.3630436E+01  2.1971902E+04
 5.3670444E+01  2.2207910E+04
 5.3710453E+01  2.2434930E+04
 5.3750458E+01  2.2642148E+04
 5.3790466E+01  2.2691756E+04
 5.3830475E+01  2.2706521E+04
 5.3870483E+01  2.2604195E+04
 5.3910492E+01  2.2340443E+04
 5.3950497E+01  2.2039225E+04
 5.3990505E+01  2.1690629E+04
 5.4030514E+01  2.1396887E+04
 5.4070522E+01  2.1032666E+04
 5.4110531E+01  2.0796641E+04
 5.4150536E+01  2.0662432E+04
 5.4190544E+01  2.0537320E+04
 5.4230553E+01  2.0471129E+04
 5.4270561E+01  2.0346090E+04
 5.4310570E+01  2.0291668E+04
 5.4350574E+01  2.0210209E+04
 5.4390583E+01  2.0078434E+04
 5.4430592E+01  1.9931824E+04
 5.4470600E+01  1.9920176E+04
 5.4510609E+01  1.9873881E+04
 5.4550613E+01  1.9757061E+04
 5.4590622E+01  1.9754064E+04
 5.4630630E+01  1.9640445E+04
 5.4670639E+01  1.9563371E+04
 5.4710648E+01  1.9439568E+04
 5.4750652E+01  1.9293488E+04
 5.4790661E+01  1.9151824E+04
 5.4830669E+01  1.9037236E+04
 5.4870678E+01  1.8976898E+04
 5.4910686E+01  1.8883475E+04
 5.4950691E+01  1.8903525E+04
 5.4990700E+01  1.8928080E+04
 5.5030708E+01  1.8966885E+04
 5.5070717E+01  1.9052146E+04
 5.5110725E+01  1.9075615E+04
 5.5150730E+01  1.9251197E+04
 5.5190739E+01  1.9426725E+04
 5.5230747E+01  1.9567738E+04
 5.5270756E+01  1.9627355E+04
 5.5310764E+01  1.9747789E+04
 5.5350769E+01  2.0021332E+04
 5.5390778E+01  2.0189760E+04
 5.5430786E+01  2.0340729E+04
 5.5470795E+01  2.0403869E+04
 5.5510803E+01  2.0445945E+04
 5.5550808E+01  2.0497943E+04
 5.5590816E+01  2.0512537E+04
 5.5630825E+01  2.0497432E+04
 5.5670834E+01  2.0434311E+04
 5.5710842E+01  2.0299668E+04
 5.5750847E+01  2.0389826E+04
 5.5790855E+01  2.0478521E+04
 5.5830864E+01  2.0615086E+04
 5.5870872E+01  2.0776080E+04
 5.5910881E+01  2.0894943E+04
 5.5950886E+01  2.0994041E+04
 5.5990894E+01  2.1123432E+04
 5.6030903E+01  2.1316273E+04
 5.6070911E+01  2.1333898E+04
 5.6110920E+01  2.1418518E+04
 5.6150925E+01  2.1502609E+04
 5.6190933E+01  2.1501422E+04
 5.6230942E+01  2.1690162E+04
 5.6270950E+01  2.1589439E+04
 5.6310959E+01  2.1560664E+04
 5.6350964E+01  2.1327199E+04
 5.6390972E+01  2.1072176E+04
 5.6430981E+01  2.0643514E+04
 5.6470989E+01  2.0199779E+04
 5.6510998E+01  2.0025852E+04
 5.6551003E+01  1.9674438E+04
 5.6591011E+01  1.9331371E+04
 5.6631020E+01  1.8972059E+04
 5.6671028E+01  1.8962586E+04
 5.6711037E+01  1.8712010E+04
 5.6751041E+01  1.8506070E+04
 5.6791050E+01  1.8540256E+04
 5.6831059E+01  1.8252490E+04
 5.6871067E+01  1.8093711E+04
 5.6911076E+01  1.7980705E+04
 5.6951080E+01  1.8125639E+04
 5.6991089E+01  1.8297309E+04
 5.7031097E+01  1.8207883E+04
 5.7071106E+01  1.8201926E+04
 5.7111115E+01  1.8062033E+04
 5.7151119E+01  1.7948539E+04
 5.7191128E+01  1.7922260E+04
 5.7231136E+01  1.7698170E+04
 5.7271145E+01  1.7548973E+04
 5.7311153E+01  1.7172361E+04
 5.7351158E+01  1.6914182E+04
 5.7391167E+01  1.6768684E+04
 5.7431175E+01  1.6424174E+04
 5.7471184E+01  1.6354604E+04
 5.7511192E+01  1.5956117E+04
 5.7551197E+01  1.5798392E+04
 5.7591206E+01  1.5450280E+04
 5.7631214E+01  1.4969581E+04
 5.7671223E+01  1.4378643E+04
 5.7711231E+01  1.5012236E+04
 5.7751236E+01  1.4835788E+04
 5.7791245E+01  1.4553948E+04
 5.7831253E+01  1.4489401E+04
 5.7871262E+01  1.4572890E+04
 5.7911270E+01  1.4805042E+04
 5.7951275E+01  1.4858037E+04
 5.7991283E+01  1.5037905E+04
 5.8031292E+01  1.4947483E+04
 5.8071301E+01  1.4754352E+04
 5.8111309E+01  1.4149580E+04
 5.8151314E+01  1.3893804E+04
 5.8191322E+01  1.3145891E+04
 5.8231331E+01  1.2627657E+04
 5.8271339E+01  1.1450124E+04
 5.8311348E+01  1.0440955E+04
 5.8351353E+01  8.2840664E+03
 5.8391361E+01  7.1921133E+03
 5.8431370E+01  6.9037476E+03
 5.8471378E+01  6.7411973E+03
 5.8511387E+01  4.7659199E+03
 5.8551392E+01  2.8031333E+03
 5.8591400E+01  1.6594375E+03
