Pt_bulk_ramp03-00904.tif: 2-theta Scan
2-Theta Angle (Degrees)

       1465
 2.0003892E-02  0.0000000E+00
 6.0011677E-02  0.0000000E+00
 1.0001946E-01  0.0000000E+00
 1.4002724E-01  0.0000000E+00
 1.8003502E-01  0.0000000E+00
 2.2004281E-01  0.0000000E+00
 2.6005059E-01  0.0000000E+00
 3.0005839E-01  0.0000000E+00
 3.4006616E-01  0.0000000E+00
 3.8007396E-01  0.0000000E+00
 4.2008173E-01  0.0000000E+00
 4.6008953E-01  0.0000000E+00
 5.0009733E-01  0.0000000E+00
 5.4010510E-01  0.0000000E+00
 5.8011287E-01  0.0000000E+00
 6.2012064E-01  0.0000000E+00
 6.6012847E-01  0.0000000E+00
 7.0013624E-01  0.0000000E+00
 7.4014401E-01  1.6408572E+04
 7.8015178E-01  1.8982193E+04
 8.2015961E-01  2.9795748E+04
 8.6016738E-01  4.9110891E+04
 9.0017515E-01  7.5158336E+04
 9.4018292E-01  8.9300898E+04
 9.8019075E-01  8.9579172E+04
 1.0201985E+00  8.4510477E+04
 1.0602063E+00  7.8282055E+04
 1.1002141E+00  7.3813805E+04
 1.1402218E+00  6.9365531E+04
 1.1802297E+00  6.5746984E+04
 1.2202375E+00  6.2963113E+04
 1.2602452E+00  6.0341328E+04
 1.3002530E+00  5.8263363E+04
 1.3402607E+00  5.6563090E+04
 1.3802686E+00  5.5018230E+04
 1.4202764E+00  5.3895355E+04
 1.4602841E+00  5.3001527E+04
 1.5002919E+00  5.2132156E+04
 1.5402998E+00  5.1356246E+04
 1.5803075E+00  5.0569941E+04
 1.6203153E+00  4.9904090E+04
 1.6603230E+00  4.9486391E+04
 1.7003309E+00  4.9419941E+04
 1.7403387E+00  4.9746441E+04
 1.7803464E+00  5.0104625E+04
 1.8203542E+00  4.9777926E+04
 1.8603621E+00  4.8768344E+04
 1.9003698E+00  4.7739691E+04
 1.9403776E+00  4.7279234E+04
 1.9803853E+00  4.7280152E+04
 2.0203931E+00  4.7565488E+04
 2.0604010E+00  4.7820762E+04
 2.1004088E+00  4.7800695E+04
 2.1404164E+00  4.7574613E+04
 2.1804242E+00  4.7336168E+04
 2.2204320E+00  4.7322844E+04
 2.2604399E+00  4.7463445E+04
 2.3004477E+00  4.7572035E+04
 2.3404555E+00  4.7799199E+04
 2.3804631E+00  4.7996461E+04
 2.4204710E+00  4.8205527E+04
 2.4604788E+00  4.8475230E+04
 2.5004866E+00  4.8832895E+04
 2.5404944E+00  4.9335324E+04
 2.5805020E+00  4.9703844E+04
 2.6205099E+00  4.9877219E+04
 2.6605177E+00  4.9666598E+04
 2.7005255E+00  4.9000027E+04
 2.7405334E+00  4.8118570E+04
 2.7805409E+00  4.7184438E+04
 2.8205488E+00  4.6394992E+04
 2.8605566E+00  4.5816832E+04
 2.9005644E+00  4.5345016E+04
 2.9405723E+00  4.4766062E+04
 2.9805801E+00  4.3844539E+04
 3.0205877E+00  4.2798133E+04
 3.0605955E+00  4.1881477E+04
 3.1006033E+00  4.1213453E+04
 3.1406112E+00  4.0728539E+04
 3.1806190E+00  4.0286379E+04
 3.2206266E+00  3.9935391E+04
 3.2606344E+00  3.9710723E+04
 3.3006423E+00  3.9618074E+04
 3.3406501E+00  3.9726859E+04
 3.3806579E+00  4.0041582E+04
 3.4206655E+00  4.0397016E+04
 3.4606733E+00  4.0552645E+04
 3.5006812E+00  4.0441910E+04
 3.5406890E+00  4.0308824E+04
 3.5806968E+00  4.0294102E+04
 3.6207047E+00  4.0319055E+04
 3.6607122E+00  4.0320547E+04
 3.7007201E+00  4.0214844E+04
 3.7407279E+00  4.0067758E+04
 3.7807357E+00  3.9871621E+04
 3.8207436E+00  3.9647863E+04
 3.8607512E+00  3.9440238E+04
 3.9007590E+00  3.9323637E+04
 3.9407668E+00  3.9281594E+04
 3.9807746E+00  3.9249047E+04
 4.0207825E+00  3.9327375E+04
 4.0607901E+00  3.9562523E+04
 4.1007981E+00  3.9850062E+04
 4.1408057E+00  4.0160672E+04
 4.1808133E+00  4.0482617E+04
 4.2208214E+00  4.0850898E+04
 4.2608290E+00  4.1286992E+04
 4.3008370E+00  4.1837754E+04
 4.3408446E+00  4.2556625E+04
 4.3808522E+00  4.3456762E+04
 4.4208603E+00  4.4524492E+04
 4.4608679E+00  4.5841711E+04
 4.5008759E+00  4.7387750E+04
 4.5408835E+00  4.9086645E+04
 4.5808916E+00  5.1002242E+04
 4.6208992E+00  5.3264480E+04
 4.6609068E+00  5.5887074E+04
 4.7009149E+00  5.8950641E+04
 4.7409225E+00  6.2666949E+04
 4.7809305E+00  6.7217594E+04
 4.8209381E+00  7.2876617E+04
 4.8609457E+00  7.9882367E+04
 4.9009538E+00  8.8704945E+04
 4.9409614E+00  1.0010926E+05
 4.9809694E+00  1.1489206E+05
 5.0209770E+00  1.3512131E+05
 5.0609846E+00  1.6331786E+05
 5.1009927E+00  2.0356534E+05
 5.1410003E+00  2.6797619E+05
 5.1810083E+00  3.8080153E+05
 5.2210159E+00  6.0299888E+05
 5.2610235E+00  1.0910536E+06
 5.3010316E+00  2.0113472E+06
 5.3410392E+00  3.1457958E+06
 5.3810472E+00  3.6747388E+06
 5.4210548E+00  3.6769550E+06
 5.4610624E+00  3.1296065E+06
 5.5010705E+00  1.9977316E+06
 5.5410781E+00  1.0468745E+06
 5.5810862E+00  5.6208356E+05
 5.6210938E+00  3.4741338E+05
 5.6611013E+00  2.4566509E+05
 5.7011094E+00  1.9563366E+05
 5.7411170E+00  1.6934856E+05
 5.7811251E+00  1.5621667E+05
 5.8211327E+00  1.5240359E+05
 5.8611407E+00  1.5583847E+05
 5.9011483E+00  1.6760859E+05
 5.9411559E+00  1.9028745E+05
 5.9811640E+00  2.3074478E+05
 6.0211716E+00  3.0555978E+05
 6.0611796E+00  4.4594038E+05
 6.1011872E+00  7.1561800E+05
 6.1411948E+00  1.1666879E+06
 6.1812029E+00  1.7040859E+06
 6.2212105E+00  2.0614026E+06
 6.2612185E+00  1.9648219E+06
 6.3012261E+00  1.4855730E+06
 6.3412337E+00  9.2245356E+05
 6.3812418E+00  5.2678575E+05
 6.4212494E+00  3.0428981E+05
 6.4612575E+00  1.9341481E+05
 6.5012650E+00  1.3596475E+05
 6.5412726E+00  1.0380169E+05
 6.5812807E+00  8.4788469E+04
 6.6212883E+00  7.2412984E+04
 6.6612964E+00  6.3913703E+04
 6.7013040E+00  5.7882602E+04
 6.7413116E+00  5.3356906E+04
 6.7813196E+00  4.9915262E+04
 6.8213272E+00  4.7207141E+04
 6.8613353E+00  4.4941688E+04
 6.9013429E+00  4.3037609E+04
 6.9413505E+00  4.1404762E+04
 6.9813585E+00  3.9905426E+04
 7.0213661E+00  3.8707703E+04
 7.0613742E+00  3.7751762E+04
 7.1013818E+00  3.6894461E+04
 7.1413898E+00  3.6174648E+04
 7.1813974E+00  3.5566234E+04
 7.2214050E+00  3.5034723E+04
 7.2614131E+00  3.4608570E+04
 7.3014207E+00  3.4250414E+04
 7.3414288E+00  3.3997539E+04
 7.3814363E+00  3.3818488E+04
 7.4214439E+00  3.3663746E+04
 7.4614520E+00  3.3568531E+04
 7.5014596E+00  3.3499887E+04
 7.5414677E+00  3.3463176E+04
 7.5814753E+00  3.3481805E+04
 7.6214828E+00  3.3524891E+04
 7.6614909E+00  3.3648504E+04
 7.7014985E+00  3.3895453E+04
 7.7415066E+00  3.4236469E+04
 7.7815142E+00  3.4588910E+04
 7.8215218E+00  3.5019719E+04
 7.8615298E+00  3.5536891E+04
 7.9015374E+00  3.6158918E+04
 7.9415455E+00  3.6937691E+04
 7.9815531E+00  3.7819262E+04
 8.0215607E+00  3.8836102E+04
 8.0615683E+00  4.0004223E+04
 8.1015768E+00  4.1398680E+04
 8.1415844E+00  4.3063461E+04
 8.1815920E+00  4.5043805E+04
 8.2215996E+00  4.7424238E+04
 8.2616072E+00  5.0371008E+04
 8.3016157E+00  5.4128961E+04
 8.3416233E+00  5.8885613E+04
 8.3816309E+00  6.5066336E+04
 8.4216385E+00  7.3268141E+04
 8.4616461E+00  8.4362758E+04
 8.5016546E+00  1.0007016E+05
 8.5416622E+00  1.2374641E+05
 8.5816698E+00  1.6156930E+05
 8.6216774E+00  2.2792047E+05
 8.6616850E+00  3.5241778E+05
 8.7016935E+00  5.7714375E+05
 8.7417011E+00  9.3037231E+05
 8.7817087E+00  1.3103332E+06
 8.8217163E+00  1.5145920E+06
 8.8617239E+00  1.3922598E+06
 8.9017324E+00  1.0381586E+06
 8.9417400E+00  6.5814488E+05
 8.9817476E+00  3.9100059E+05
 9.0217552E+00  2.4010330E+05
 9.0617638E+00  1.6018111E+05
 9.1017714E+00  1.1811282E+05
 9.1417789E+00  9.4564406E+04
 9.1817865E+00  8.0349867E+04
 9.2217941E+00  7.1496484E+04
 9.2618027E+00  6.5658812E+04
 9.3018103E+00  6.1715562E+04
 9.3418179E+00  5.9124543E+04
 9.3818254E+00  5.7408828E+04
 9.4218330E+00  5.6358188E+04
 9.4618416E+00  5.5889008E+04
 9.5018492E+00  5.5851477E+04
 9.5418568E+00  5.6245465E+04
 9.5818644E+00  5.7046332E+04
 9.6218719E+00  5.8296910E+04
 9.6618805E+00  6.0092508E+04
 9.7018881E+00  6.2470199E+04
 9.7418957E+00  6.5652086E+04
 9.7819033E+00  6.9733672E+04
 9.8219109E+00  7.4900039E+04
 9.8619194E+00  8.1568828E+04
 9.9019270E+00  9.0166617E+04
 9.9419346E+00  1.0182498E+05
 9.9819422E+00  1.1792049E+05
 1.0021950E+01  1.4035170E+05
 1.0061958E+01  1.7351119E+05
 1.0101966E+01  2.2578842E+05
 1.0141973E+01  3.1273600E+05
 1.0181981E+01  4.6578022E+05
 1.0221989E+01  7.2975494E+05
 1.0261997E+01  1.1161812E+06
 1.0302005E+01  1.5357998E+06
 1.0342012E+01  1.7667274E+06
 1.0382020E+01  1.6663692E+06
 1.0422028E+01  1.2937572E+06
 1.0462036E+01  8.7334344E+05
 1.0502044E+01  5.5481962E+05
 1.0542051E+01  3.6659219E+05
 1.0582059E+01  2.7304950E+05
 1.0622066E+01  2.4090992E+05
 1.0662075E+01  2.6001942E+05
 1.0702083E+01  3.3159728E+05
 1.0742090E+01  4.4678147E+05
 1.0782098E+01  5.5237625E+05
 1.0822105E+01  5.7618931E+05
 1.0862114E+01  4.9324412E+05
 1.0902122E+01  3.5571488E+05
 1.0942129E+01  2.3226983E+05
 1.0982137E+01  1.5097908E+05
 1.1022144E+01  1.0570816E+05
 1.1062153E+01  8.0911594E+04
 1.1102160E+01  6.6813695E+04
 1.1142168E+01  5.8255012E+04
 1.1182176E+01  5.2558223E+04
 1.1222183E+01  4.8539137E+04
 1.1262192E+01  4.5621332E+04
 1.1302199E+01  4.3368648E+04
 1.1342207E+01  4.1589680E+04
 1.1382215E+01  4.0187312E+04
 1.1422222E+01  3.9052551E+04
 1.1462231E+01  3.8137996E+04
 1.1502238E+01  3.7367719E+04
 1.1542246E+01  3.6658289E+04
 1.1582253E+01  3.6063172E+04
 1.1622262E+01  3.5621066E+04
 1.1662270E+01  3.5256105E+04
 1.1702277E+01  3.4982043E+04
 1.1742285E+01  3.4840867E+04
 1.1782292E+01  3.4829414E+04
 1.1822301E+01  3.4970656E+04
 1.1862309E+01  3.5248945E+04
 1.1902316E+01  3.5695383E+04
 1.1942324E+01  3.6486629E+04
 1.1982331E+01  3.7765359E+04
 1.2022340E+01  3.9801949E+04
 1.2062347E+01  4.1197414E+04
 1.2102355E+01  4.2970438E+04
 1.2142363E+01  4.5675211E+04
 1.2182370E+01  5.0184312E+04
 1.2222379E+01  5.6884199E+04
 1.2262386E+01  6.7235023E+04
 1.2302394E+01  8.3501711E+04
 1.2342402E+01  1.0920042E+05
 1.2382409E+01  1.4612252E+05
 1.2422418E+01  1.8872169E+05
 1.2462425E+01  2.2137714E+05
 1.2502433E+01  2.2595411E+05
 1.2542440E+01  2.0004486E+05
 1.2582448E+01  1.5783733E+05
 1.2622457E+01  1.1783902E+05
 1.2662464E+01  8.8855102E+04
 1.2702472E+01  7.0468312E+04
 1.2742479E+01  5.9605234E+04
 1.2782487E+01  5.3349762E+04
 1.2822495E+01  4.9828184E+04
 1.2862503E+01  4.8048027E+04
 1.2902511E+01  4.7424691E+04
 1.2942518E+01  4.7617406E+04
 1.2982526E+01  4.8487094E+04
 1.3022534E+01  4.9959371E+04
 1.3062542E+01  5.2072148E+04
 1.3102550E+01  5.4956586E+04
 1.3142557E+01  5.8755148E+04
 1.3182565E+01  6.3755871E+04
 1.3222573E+01  7.0355836E+04
 1.3262581E+01  7.9249117E+04
 1.3302588E+01  9.1606984E+04
 1.3342596E+01  1.0933979E+05
 1.3382604E+01  1.3642230E+05
 1.3422612E+01  1.8013880E+05
 1.3462620E+01  2.5239911E+05
 1.3502627E+01  3.6579675E+05
 1.3542635E+01  5.1518534E+05
 1.3582643E+01  6.5409250E+05
 1.3622651E+01  7.1524319E+05
 1.3662659E+01  6.6681669E+05
 1.3702666E+01  5.4969662E+05
 1.3742674E+01  4.3383097E+05
 1.3782681E+01  3.6787628E+05
 1.3822690E+01  3.6709806E+05
 1.3862698E+01  4.2802384E+05
 1.3902705E+01  5.2701862E+05
 1.3942713E+01  6.1141738E+05
 1.3982720E+01  6.2420112E+05
 1.4022729E+01  5.4876362E+05
 1.4062737E+01  4.2423062E+05
 1.4102744E+01  3.0167031E+05
 1.4142752E+01  2.1009416E+05
 1.4182760E+01  1.5029692E+05
 1.4222768E+01  1.1325027E+05
 1.4262775E+01  9.0545633E+04
 1.4302783E+01  7.6285875E+04
 1.4342791E+01  6.6965797E+04
 1.4382799E+01  6.0686609E+04
 1.4422807E+01  5.6340004E+04
 1.4462814E+01  5.3248641E+04
 1.4502822E+01  5.1025562E+04
 1.4542830E+01  4.9490098E+04
 1.4582838E+01  4.8459625E+04
 1.4622846E+01  4.7883984E+04
 1.4662853E+01  4.7739398E+04
 1.4702861E+01  4.8023359E+04
 1.4742868E+01  4.8709297E+04
 1.4782877E+01  4.9918824E+04
 1.4822885E+01  5.1699742E+04
 1.4862892E+01  5.4252090E+04
 1.4902900E+01  5.7818238E+04
 1.4942907E+01  6.2764105E+04
 1.4982916E+01  6.9679234E+04
 1.5022923E+01  7.9666219E+04
 1.5062931E+01  9.4611578E+04
 1.5102939E+01  1.1802659E+05
 1.5142946E+01  1.5548547E+05
 1.5182955E+01  2.1403912E+05
 1.5222962E+01  2.9381391E+05
 1.5262970E+01  3.7657272E+05
 1.5302978E+01  4.2613400E+05
 1.5342985E+01  4.1464141E+05
 1.5382994E+01  3.4953472E+05
 1.5423001E+01  2.6462784E+05
 1.5463009E+01  1.9056550E+05
 1.5503016E+01  1.3834036E+05
 1.5543024E+01  1.0520713E+05
 1.5583033E+01  8.5229820E+04
 1.5623040E+01  7.3420086E+04
 1.5663048E+01  6.6598883E+04
 1.5703055E+01  6.2977070E+04
 1.5743063E+01  6.1627949E+04
 1.5783072E+01  6.2063621E+04
 1.5823079E+01  6.4208508E+04
 1.5863087E+01  6.8279977E+04
 1.5903094E+01  7.4690047E+04
 1.5943102E+01  8.4329836E+04
 1.5983110E+01  9.8800688E+04
 1.6023117E+01  1.2096720E+05
 1.6063126E+01  1.5540770E+05
 1.6103134E+01  2.0766877E+05
 1.6143141E+01  2.7983331E+05
 1.6183149E+01  3.5998453E+05
 1.6223156E+01  4.1863572E+05
 1.6263165E+01  4.2586925E+05
 1.6303173E+01  3.7707444E+05
 1.6343180E+01  2.9746294E+05
 1.6383188E+01  2.1869745E+05
 1.6423195E+01  1.5760158E+05
 1.6463203E+01  1.1600445E+05
 1.6503212E+01  8.9175484E+04
 1.6543219E+01  7.1958477E+04
 1.6583227E+01  6.0782590E+04
 1.6623234E+01  5.3295004E+04
 1.6663242E+01  4.8136531E+04
 1.6703251E+01  4.4467855E+04
 1.6743258E+01  4.1833797E+04
 1.6783266E+01  3.9891027E+04
 1.6823273E+01  3.8426359E+04
 1.6863281E+01  3.7351750E+04
 1.6903290E+01  3.6568945E+04
 1.6943296E+01  3.5983449E+04
 1.6983305E+01  3.5621203E+04
 1.7023312E+01  3.5435039E+04
 1.7063320E+01  3.5388832E+04
 1.7103329E+01  3.5535297E+04
 1.7143335E+01  3.5837281E+04
 1.7183344E+01  3.6317094E+04
 1.7223351E+01  3.7063121E+04
 1.7263359E+01  3.8109027E+04
 1.7303368E+01  3.9529820E+04
 1.7343374E+01  4.1448043E+04
 1.7383383E+01  4.4073680E+04
 1.7423389E+01  4.7757355E+04
 1.7463398E+01  5.3107625E+04
 1.7503407E+01  6.1202676E+04
 1.7543413E+01  7.3496078E+04
 1.7583422E+01  9.1188648E+04
 1.7623428E+01  1.1297227E+05
 1.7663437E+01  1.3285470E+05
 1.7703445E+01  1.4246495E+05
 1.7743452E+01  1.3732284E+05
 1.7783461E+01  1.2084865E+05
 1.7823467E+01  1.0091998E+05
 1.7863476E+01  8.3905289E+04
 1.7903484E+01  7.2080383E+04
 1.7943491E+01  6.5051566E+04
 1.7983500E+01  6.1671055E+04
 1.8023508E+01  6.0978902E+04
 1.8063515E+01  6.2454367E+04
 1.8103523E+01  6.5791789E+04
 1.8143530E+01  7.1140312E+04
 1.8183538E+01  7.8971336E+04
 1.8223547E+01  9.0256336E+04
 1.8263554E+01  1.0662272E+05
 1.8303562E+01  1.3099455E+05
 1.8343569E+01  1.6764197E+05
 1.8383577E+01  2.2103672E+05
 1.8423586E+01  2.9082712E+05
 1.8463593E+01  3.6371984E+05
 1.8503601E+01  4.1480022E+05
 1.8543608E+01  4.2395419E+05
 1.8583616E+01  3.9447206E+05
 1.8623625E+01  3.5081741E+05
 1.8663631E+01  3.1884409E+05
 1.8703640E+01  3.0796872E+05
 1.8743647E+01  3.0843878E+05
 1.8783655E+01  3.0121409E+05
 1.8823664E+01  2.7396788E+05
 1.8863670E+01  2.2975472E+05
 1.8903679E+01  1.8160670E+05
 1.8943686E+01  1.4041483E+05
 1.8983694E+01  1.0997002E+05
 1.9023703E+01  8.9046828E+04
 1.9063709E+01  7.5044891E+04
 1.9103718E+01  6.5764781E+04
 1.9143724E+01  5.9495723E+04
 1.9183733E+01  5.5250000E+04
 1.9223742E+01  5.2401297E+04
 1.9263748E+01  5.0567480E+04
 1.9303757E+01  4.9542293E+04
 1.9343763E+01  4.9289945E+04
 1.9383772E+01  4.9737199E+04
 1.9423780E+01  5.0964000E+04
 1.9463787E+01  5.3172191E+04
 1.9503796E+01  5.6616457E+04
 1.9543802E+01  6.1788336E+04
 1.9583811E+01  6.9499992E+04
 1.9623819E+01  8.0761500E+04
 1.9663826E+01  9.6528438E+04
 1.9703835E+01  1.1648021E+05
 1.9743841E+01  1.3714966E+05
 1.9783850E+01  1.5183395E+05
 1.9823858E+01  1.5431130E+05
 1.9863865E+01  1.4335744E+05
 1.9903873E+01  1.2403741E+05
 1.9943880E+01  1.0328766E+05
 1.9983889E+01  8.5747297E+04
 2.0023897E+01  7.2918188E+04
 2.0063904E+01  6.4319660E+04
 2.0103912E+01  5.9014664E+04
 2.0143919E+01  5.6320043E+04
 2.0183928E+01  5.5615426E+04
 2.0223936E+01  5.6666812E+04
 2.0263943E+01  5.9626293E+04
 2.0303951E+01  6.4908965E+04
 2.0343958E+01  7.3382281E+04
 2.0383966E+01  8.6357289E+04
 2.0423975E+01  1.0508391E+05
 2.0463982E+01  1.2843849E+05
 2.0503990E+01  1.5155862E+05
 2.0543997E+01  1.6724773E+05
 2.0584005E+01  1.7129162E+05
 2.0624014E+01  1.6671414E+05
 2.0664021E+01  1.6099941E+05
 2.0704029E+01  1.5907375E+05
 2.0744036E+01  1.5928886E+05
 2.0784044E+01  1.5586400E+05
 2.0824053E+01  1.4432356E+05
 2.0864059E+01  1.2562432E+05
 2.0904068E+01  1.0456608E+05
 2.0944075E+01  8.5533266E+04
 2.0984083E+01  7.0663062E+04
 2.1024092E+01  5.9911332E+04
 2.1064098E+01  5.2376992E+04
 2.1104107E+01  4.7184191E+04
 2.1144114E+01  4.3598223E+04
 2.1184122E+01  4.1112496E+04
 2.1224131E+01  3.9422375E+04
 2.1264137E+01  3.8328473E+04
 2.1304146E+01  3.7690730E+04
 2.1344152E+01  3.7458707E+04
 2.1384161E+01  3.7608211E+04
 2.1424170E+01  3.8136156E+04
 2.1464176E+01  3.9164984E+04
 2.1504185E+01  4.0893059E+04
 2.1544191E+01  4.3677695E+04
 2.1584200E+01  4.7802605E+04
 2.1624208E+01  5.3264875E+04
 2.1664215E+01  5.9190145E+04
 2.1704224E+01  6.3657652E+04
 2.1744230E+01  6.4876684E+04
 2.1784239E+01  6.2648266E+04
 2.1824247E+01  5.8467586E+04
 2.1864254E+01  5.4299641E+04
 2.1904263E+01  5.1389383E+04
 2.1944269E+01  5.0180348E+04
 2.1984278E+01  5.0605875E+04
 2.2024286E+01  5.2545965E+04
 2.2064293E+01  5.6032652E+04
 2.2104301E+01  6.1305684E+04
 2.2144308E+01  6.8955641E+04
 2.2184317E+01  7.9844680E+04
 2.2224325E+01  9.5179750E+04
 2.2264332E+01  1.1596604E+05
 2.2304340E+01  1.4138777E+05
 2.2344347E+01  1.6710894E+05
 2.2384356E+01  1.8615094E+05
 2.2424364E+01  1.9280231E+05
 2.2464371E+01  1.8741377E+05
 2.2504379E+01  1.7593395E+05
 2.2544386E+01  1.6440241E+05
 2.2584394E+01  1.5453473E+05
 2.2624403E+01  1.4391667E+05
 2.2664410E+01  1.3019196E+05
 2.2704418E+01  1.1364218E+05
 2.2744425E+01  9.6834148E+04
 2.2784433E+01  8.2236039E+04
 2.2824442E+01  7.0847281E+04
 2.2864449E+01  6.2601203E+04
 2.2904457E+01  5.6962828E+04
 2.2944464E+01  5.3288758E+04
 2.2984472E+01  5.1147395E+04
 2.3024481E+01  5.0190914E+04
 2.3064487E+01  5.0220961E+04
 2.3104496E+01  5.1226508E+04
 2.3144505E+01  5.3287113E+04
 2.3184511E+01  5.6603477E+04
 2.3224520E+01  6.1584309E+04
 2.3264526E+01  6.8955258E+04
 2.3304535E+01  7.9761094E+04
 2.3344543E+01  9.4912078E+04
 2.3384550E+01  1.1418605E+05
 2.3424559E+01  1.3466430E+05
 2.3464565E+01  1.5021591E+05
 2.3504574E+01  1.5489889E+05
 2.3544582E+01  1.4712342E+05
 2.3584589E+01  1.3089056E+05
 2.3624598E+01  1.1244888E+05
 2.3664604E+01  9.6536258E+04
 2.3704613E+01  8.5050328E+04
 2.3744621E+01  7.8027406E+04
 2.3784628E+01  7.5001078E+04
 2.3824636E+01  7.5622797E+04
 2.3864643E+01  7.9844125E+04
 2.3904652E+01  8.8192773E+04
 2.3944660E+01  1.0156691E+05
 2.3984667E+01  1.2051319E+05
 2.4024675E+01  1.4366922E+05
 2.4064682E+01  1.6622359E+05
 2.4104691E+01  1.8054520E+05
 2.4144699E+01  1.8047509E+05
 2.4184706E+01  1.6587850E+05
 2.4224714E+01  1.4242788E+05
 2.4264721E+01  1.1738160E+05
 2.4304729E+01  9.5630078E+04
 2.4344738E+01  7.8628109E+04
 2.4384745E+01  6.6018539E+04
 2.4424753E+01  5.6925633E+04
 2.4464760E+01  5.0434535E+04
 2.4504768E+01  4.5717430E+04
 2.4544777E+01  4.2259750E+04
 2.4584784E+01  3.9696414E+04
 2.4624792E+01  3.7804988E+04
 2.4664799E+01  3.6415172E+04
 2.4704807E+01  3.5390473E+04
 2.4744816E+01  3.4678617E+04
 2.4784822E+01  3.4255578E+04
 2.4824831E+01  3.4078719E+04
 2.4864838E+01  3.4149207E+04
 2.4904846E+01  3.4503973E+04
 2.4944855E+01  3.5184660E+04
 2.4984861E+01  3.6188785E+04
 2.5024870E+01  3.7452059E+04
 2.5064877E+01  3.8771887E+04
 2.5104885E+01  3.9859523E+04
 2.5144894E+01  4.0402895E+04
 2.5184900E+01  4.0340355E+04
 2.5224909E+01  3.9854305E+04
 2.5264915E+01  3.9298711E+04
 2.5304924E+01  3.9058617E+04
 2.5344933E+01  3.9285770E+04
 2.5384939E+01  4.0117203E+04
 2.5424948E+01  4.1666719E+04
 2.5464954E+01  4.4053043E+04
 2.5504963E+01  4.7520488E+04
 2.5544971E+01  5.2382320E+04
 2.5584978E+01  5.8895309E+04
 2.5624987E+01  6.7093320E+04
 2.5664993E+01  7.6388914E+04
 2.5705002E+01  8.5611062E+04
 2.5745010E+01  9.3700273E+04
 2.5785017E+01  1.0048959E+05
 2.5825026E+01  1.0639973E+05
 2.5865032E+01  1.1118883E+05
 2.5905041E+01  1.1320263E+05
 2.5945049E+01  1.1030514E+05
 2.5985056E+01  1.0203163E+05
 2.6025064E+01  9.0442992E+04
 2.6065071E+01  7.8265875E+04
 2.6105080E+01  6.7570188E+04
 2.6145088E+01  5.9195320E+04
 2.6185095E+01  5.3068422E+04
 2.6225103E+01  4.8824223E+04
 2.6265110E+01  4.6077500E+04
 2.6305119E+01  4.4527281E+04
 2.6345127E+01  4.4002285E+04
 2.6385134E+01  4.4417758E+04
 2.6425142E+01  4.5773258E+04
 2.6465149E+01  4.8215895E+04
 2.6505157E+01  5.1973531E+04
 2.6545166E+01  5.7117320E+04
 2.6585173E+01  6.3379531E+04
 2.6625181E+01  6.9806742E+04
 2.6665188E+01  7.4747547E+04
 2.6705196E+01  7.6543203E+04
 2.6745205E+01  7.4736141E+04
 2.6785212E+01  7.0371539E+04
 2.6825220E+01  6.5106215E+04
 2.6865227E+01  6.0451113E+04
 2.6905235E+01  5.7247215E+04
 2.6945244E+01  5.5782031E+04
 2.6985250E+01  5.6198152E+04
 2.7025259E+01  5.8611121E+04
 2.7065266E+01  6.3334480E+04
 2.7105274E+01  7.0627422E+04
 2.7145283E+01  8.0248578E+04
 2.7185289E+01  9.0883625E+04
 2.7225298E+01  1.0009827E+05
 2.7265305E+01  1.0545261E+05
 2.7305313E+01  1.0586604E+05
 2.7345322E+01  1.0235807E+05
 2.7385328E+01  9.6689758E+04
 2.7425337E+01  8.9986234E+04
 2.7465343E+01  8.2543523E+04
 2.7505352E+01  7.4470609E+04
 2.7545361E+01  6.6323094E+04
 2.7585367E+01  5.8965262E+04
 2.7625376E+01  5.2909371E+04
 2.7665382E+01  4.8247340E+04
 2.7705391E+01  4.4861516E+04
 2.7745399E+01  4.2521090E+04
 2.7785406E+01  4.1062758E+04
 2.7825415E+01  4.0327676E+04
 2.7865421E+01  4.0225293E+04
 2.7905430E+01  4.0755016E+04
 2.7945438E+01  4.1954090E+04
 2.7985445E+01  4.3910047E+04
 2.8025454E+01  4.6611195E+04
 2.8065460E+01  4.9872719E+04
 2.8105469E+01  5.3210035E+04
 2.8145477E+01  5.5786672E+04
 2.8185484E+01  5.6930238E+04
 2.8225492E+01  5.6528133E+04
 2.8265501E+01  5.5199535E+04
 2.8305508E+01  5.3759875E+04
 2.8345516E+01  5.2912480E+04
 2.8385523E+01  5.3164316E+04
 2.8425531E+01  5.4834535E+04
 2.8465540E+01  5.8184789E+04
 2.8505547E+01  6.3455723E+04
 2.8545555E+01  7.0925078E+04
 2.8585562E+01  8.0490844E+04
 2.8625570E+01  9.1250578E+04
 2.8665579E+01  1.0124064E+05
 2.8705585E+01  1.0825048E+05
 2.8745594E+01  1.1117812E+05
 2.8785601E+01  1.1038231E+05
 2.8825609E+01  1.0681938E+05
 2.8865618E+01  1.0119023E+05
 2.8905624E+01  9.3710102E+04
 2.8945633E+01  8.4715750E+04
 2.8985640E+01  7.5115414E+04
 2.9025648E+01  6.6057047E+04
 2.9065657E+01  5.8344195E+04
 2.9105663E+01  5.2200309E+04
 2.9145672E+01  4.7503684E+04
 2.9185678E+01  4.4073566E+04
 2.9225687E+01  4.1669887E+04
 2.9265696E+01  4.0110020E+04
 2.9305702E+01  3.9297820E+04
 2.9345711E+01  3.9208781E+04
 2.9385717E+01  3.9862801E+04
 2.9425726E+01  4.1302840E+04
 2.9465734E+01  4.3473586E+04
 2.9505741E+01  4.5966449E+04
 2.9545750E+01  4.8081113E+04
 2.9585756E+01  4.9064680E+04
 2.9625765E+01  4.8553410E+04
 2.9665773E+01  4.6899797E+04
 2.9705780E+01  4.4807898E+04
 2.9745789E+01  4.2993383E+04
 2.9785795E+01  4.1895188E+04
 2.9825804E+01  4.1705684E+04
 2.9865812E+01  4.2520180E+04
 2.9905819E+01  4.4322129E+04
 2.9945827E+01  4.7028469E+04
 2.9985834E+01  5.0256199E+04
 3.0025843E+01  5.3311305E+04
 3.0065851E+01  5.5262191E+04
 3.0105858E+01  5.5401184E+04
 3.0145866E+01  5.3556008E+04
 3.0185873E+01  5.0226555E+04
 3.0225882E+01  4.6283996E+04
 3.0265890E+01  4.2500172E+04
 3.0305897E+01  3.9263895E+04
 3.0345905E+01  3.6676648E+04
 3.0385912E+01  3.4700809E+04
 3.0425920E+01  3.3274109E+04
 3.0465929E+01  3.2308654E+04
 3.0505936E+01  3.1711064E+04
 3.0545944E+01  3.1429061E+04
 3.0585951E+01  3.1420453E+04
 3.0625959E+01  3.1729271E+04
 3.0665968E+01  3.2376100E+04
 3.0705975E+01  3.3378695E+04
 3.0745983E+01  3.4821773E+04
 3.0785990E+01  3.6716727E+04
 3.0825998E+01  3.8969691E+04
 3.0866007E+01  4.1267871E+04
 3.0906013E+01  4.3131434E+04
 3.0946022E+01  4.4160496E+04
 3.0986029E+01  4.4287492E+04
 3.1026037E+01  4.3836430E+04
 3.1066046E+01  4.3364703E+04
 3.1106052E+01  4.3358074E+04
 3.1146061E+01  4.4127469E+04
 3.1186068E+01  4.5940797E+04
 3.1226076E+01  4.9000043E+04
 3.1266085E+01  5.3413086E+04
 3.1306091E+01  5.9000832E+04
 3.1346100E+01  6.5088320E+04
 3.1386106E+01  7.0551047E+04
 3.1426115E+01  7.4039281E+04
 3.1466124E+01  7.4872789E+04
 3.1506130E+01  7.3260969E+04
 3.1546139E+01  6.9996383E+04
 3.1586145E+01  6.5741992E+04
 3.1626154E+01  6.1057797E+04
 3.1666162E+01  5.6357016E+04
 3.1706169E+01  5.1983461E+04
 3.1746178E+01  4.8281309E+04
 3.1786184E+01  4.5438375E+04
 3.1826193E+01  4.3469809E+04
 3.1866201E+01  4.2352316E+04
 3.1906208E+01  4.2042211E+04
 3.1946217E+01  4.2501023E+04
 3.1986223E+01  4.3827934E+04
 3.2026234E+01  4.6049375E+04
 3.2066238E+01  4.9197375E+04
 3.2106247E+01  5.3123527E+04
 3.2146255E+01  5.7351039E+04
 3.2186264E+01  6.0984109E+04
 3.2226273E+01  6.3060984E+04
 3.2266277E+01  6.2994598E+04
 3.2306286E+01  6.1075961E+04
 3.2346294E+01  5.8165371E+04
 3.2386303E+01  5.5321855E+04
 3.2426311E+01  5.3241980E+04
 3.2466316E+01  5.2317777E+04
 3.2506325E+01  5.2736648E+04
 3.2546333E+01  5.4528191E+04
 3.2586342E+01  5.7540199E+04
 3.2626350E+01  6.1183742E+04
 3.2666355E+01  6.4541184E+04
 3.2706364E+01  6.6618219E+04
 3.2746372E+01  6.6837461E+04
 3.2786381E+01  6.5189930E+04
 3.2826389E+01  6.2120617E+04
 3.2866394E+01  5.8225207E+04
 3.2906403E+01  5.3876797E+04
 3.2946411E+01  4.9444566E+04
 3.2986420E+01  4.5272551E+04
 3.3026428E+01  4.1616105E+04
 3.3066433E+01  3.8595301E+04
 3.3106441E+01  3.6141957E+04
 3.3146450E+01  3.4215535E+04
 3.3186459E+01  3.2758904E+04
 3.3226467E+01  3.1659672E+04
 3.3266472E+01  3.0849303E+04
 3.3306480E+01  3.0267031E+04
 3.3346489E+01  2.9898039E+04
 3.3386497E+01  2.9682270E+04
 3.3426506E+01  2.9647975E+04
 3.3466511E+01  2.9802705E+04
 3.3506519E+01  3.0132930E+04
 3.3546528E+01  3.0647281E+04
 3.3586536E+01  3.1371523E+04
 3.3626545E+01  3.2339820E+04
 3.3666550E+01  3.3668387E+04
 3.3706558E+01  3.5410227E+04
 3.3746567E+01  3.7697324E+04
 3.3786575E+01  4.0585574E+04
 3.3826584E+01  4.4051680E+04
 3.3866589E+01  4.7964121E+04
 3.3906597E+01  5.1961852E+04
 3.3946606E+01  5.5578547E+04
 3.3986614E+01  5.8447137E+04
 3.4026623E+01  6.0214539E+04
 3.4066628E+01  6.0644891E+04
 3.4106636E+01  5.9515695E+04
 3.4146645E+01  5.6829777E+04
 3.4186653E+01  5.3079875E+04
 3.4226662E+01  4.8998191E+04
 3.4266666E+01  4.5208043E+04
 3.4306675E+01  4.2059719E+04
 3.4346684E+01  3.9648199E+04
 3.4386692E+01  3.7954641E+04
 3.4426701E+01  3.6960551E+04
 3.4466705E+01  3.6609172E+04
 3.4506714E+01  3.6838406E+04
 3.4546722E+01  3.7569102E+04
 3.4586731E+01  3.8637891E+04
 3.4626740E+01  3.9841500E+04
 3.4666744E+01  4.0725027E+04
 3.4706753E+01  4.0987207E+04
 3.4746761E+01  4.0496215E+04
 3.4786770E+01  3.9502203E+04
 3.4826778E+01  3.8262785E+04
 3.4866783E+01  3.7162719E+04
 3.4906792E+01  3.6431020E+04
 3.4946800E+01  3.6201758E+04
 3.4986809E+01  3.6484070E+04
 3.5026817E+01  3.7186496E+04
 3.5066822E+01  3.8038691E+04
 3.5106831E+01  3.8686434E+04
 3.5146839E+01  3.8751945E+04
 3.5186848E+01  3.8084684E+04
 3.5226856E+01  3.6747754E+04
 3.5266861E+01  3.5049637E+04
 3.5306870E+01  3.3311879E+04
 3.5346878E+01  3.1785043E+04
 3.5386887E+01  3.0512221E+04
 3.5426895E+01  2.9490412E+04
 3.5466900E+01  2.8765834E+04
 3.5506908E+01  2.8299910E+04
 3.5546917E+01  2.8035037E+04
 3.5586926E+01  2.7981695E+04
 3.5626934E+01  2.8067553E+04
 3.5666939E+01  2.8352258E+04
 3.5706947E+01  2.8818783E+04
 3.5746956E+01  2.9475756E+04
 3.5786964E+01  3.0316105E+04
 3.5826973E+01  3.1210531E+04
 3.5866978E+01  3.2170443E+04
 3.5906986E+01  3.3127758E+04
 3.5946995E+01  3.4106152E+04
 3.5987003E+01  3.5221566E+04
 3.6027012E+01  3.6683629E+04
 3.6067017E+01  3.8634074E+04
 3.6107025E+01  4.1170676E+04
 3.6147034E+01  4.4395008E+04
 3.6187042E+01  4.8167297E+04
 3.6227051E+01  5.2234672E+04
 3.6267056E+01  5.5952836E+04
 3.6307064E+01  5.8652566E+04
 3.6347073E+01  5.9864660E+04
 3.6387081E+01  5.9432848E+04
 3.6427090E+01  5.7618590E+04
 3.6467094E+01  5.4867832E+04
 3.6507103E+01  5.1566168E+04
 3.6547112E+01  4.8082602E+04
 3.6587120E+01  4.4768395E+04
 3.6627129E+01  4.1892949E+04
 3.6667133E+01  3.9599109E+04
 3.6707142E+01  3.7882461E+04
 3.6747150E+01  3.6731246E+04
 3.6787159E+01  3.6102598E+04
 3.6827168E+01  3.6024203E+04
 3.6867172E+01  3.6416766E+04
 3.6907181E+01  3.7200156E+04
 3.6947189E+01  3.8144770E+04
 3.6987198E+01  3.9044328E+04
 3.7027206E+01  3.9648121E+04
 3.7067211E+01  3.9723023E+04
 3.7107220E+01  3.9410711E+04
 3.7147228E+01  3.8926719E+04
 3.7187237E+01  3.8614180E+04
 3.7227245E+01  3.8699484E+04
 3.7267250E+01  3.9322246E+04
 3.7307259E+01  4.0525754E+04
 3.7347267E+01  4.2136141E+04
 3.7387276E+01  4.3905352E+04
 3.7427284E+01  4.5473473E+04
 3.7467289E+01  4.6454566E+04
 3.7507298E+01  4.6677148E+04
 3.7547306E+01  4.6033914E+04
 3.7587315E+01  4.4701629E+04
 3.7627323E+01  4.2851680E+04
 3.7667328E+01  4.0683992E+04
 3.7707336E+01  3.8436762E+04
 3.7747345E+01  3.6340746E+04
 3.7787354E+01  3.4589016E+04
 3.7827362E+01  3.3211402E+04
 3.7867367E+01  3.2167348E+04
 3.7907375E+01  3.1487664E+04
 3.7947384E+01  3.1154006E+04
 3.7987392E+01  3.1126498E+04
 3.8027401E+01  3.1363543E+04
 3.8067406E+01  3.1716430E+04
 3.8107414E+01  3.2066049E+04
 3.8147423E+01  3.2298406E+04
 3.8187431E+01  3.2342738E+04
 3.8227440E+01  3.2217000E+04
 3.8267445E+01  3.2071908E+04
 3.8307453E+01  3.2079818E+04
 3.8347462E+01  3.2279318E+04
 3.8387470E+01  3.2800324E+04
 3.8427479E+01  3.3597223E+04
 3.8467484E+01  3.4509172E+04
 3.8507492E+01  3.5385398E+04
 3.8547501E+01  3.5985180E+04
 3.8587509E+01  3.6174547E+04
 3.8627518E+01  3.5894559E+04
 3.8667522E+01  3.5216020E+04
 3.8707531E+01  3.4278074E+04
 3.8747540E+01  3.3362020E+04
 3.8787548E+01  3.2301215E+04
 3.8827557E+01  3.1494098E+04
 3.8867561E+01  3.0912898E+04
 3.8907570E+01  3.0577947E+04
 3.8947578E+01  3.0485682E+04
 3.8987587E+01  3.0718988E+04
 3.9027596E+01  3.1307334E+04
 3.9067600E+01  3.2154156E+04
 3.9107609E+01  3.3219074E+04
 3.9147617E+01  3.4427941E+04
 3.9187626E+01  3.5489230E+04
 3.9227634E+01  3.6221156E+04
 3.9267639E+01  3.6490074E+04
 3.9307648E+01  3.6340707E+04
 3.9347656E+01  3.5959766E+04
 3.9387665E+01  3.5631176E+04
 3.9427673E+01  3.5550250E+04
 3.9467678E+01  3.5883250E+04
 3.9507687E+01  3.6578805E+04
 3.9547695E+01  3.7465176E+04
 3.9587704E+01  3.8245645E+04
 3.9627712E+01  3.8564797E+04
 3.9667717E+01  3.8169312E+04
 3.9707726E+01  3.7126887E+04
 3.9747734E+01  3.5577129E+04
 3.9787743E+01  3.3821852E+04
 3.9827751E+01  3.2143719E+04
 3.9867756E+01  3.0680568E+04
 3.9907764E+01  2.9484318E+04
 3.9947773E+01  2.8554744E+04
 3.9987782E+01  2.7859594E+04
 4.0027790E+01  2.7339543E+04
 4.0067795E+01  2.7089098E+04
 4.0107803E+01  2.6910797E+04
 4.0147812E+01  2.7036557E+04
 4.0187820E+01  2.7181451E+04
 4.0227829E+01  2.7408076E+04
 4.0267834E+01  2.7658049E+04
 4.0307842E+01  2.7845623E+04
 4.0347851E+01  2.8013828E+04
 4.0387859E+01  2.8164146E+04
 4.0427868E+01  2.8359070E+04
 4.0467873E+01  2.8694721E+04
 4.0507881E+01  2.9223637E+04
 4.0547890E+01  2.9971537E+04
 4.0587898E+01  3.0946133E+04
 4.0627907E+01  3.2156969E+04
 4.0667912E+01  3.3511531E+04
 4.0707920E+01  3.4917711E+04
 4.0747929E+01  3.6101652E+04
 4.0787937E+01  3.6907598E+04
 4.0827946E+01  3.7136945E+04
 4.0867950E+01  3.6768926E+04
 4.0907959E+01  3.5865285E+04
 4.0947968E+01  3.4685277E+04
 4.0987976E+01  3.3482582E+04
 4.1027985E+01  3.2439506E+04
 4.1067993E+01  3.1636057E+04
 4.1107998E+01  3.1118988E+04
 4.1148006E+01  3.0882635E+04
 4.1188015E+01  3.0943248E+04
 4.1228024E+01  3.1244852E+04
 4.1268032E+01  3.1738939E+04
 4.1308037E+01  3.2296953E+04
 4.1348045E+01  3.2728488E+04
 4.1388054E+01  3.3054496E+04
 4.1428062E+01  3.3255066E+04
 4.1468071E+01  3.3447551E+04
 4.1508076E+01  3.3830348E+04
 4.1548084E+01  3.4438410E+04
 4.1588093E+01  3.5341934E+04
 4.1628101E+01  3.6415207E+04
 4.1668110E+01  3.7462465E+04
 4.1708115E+01  3.8289633E+04
 4.1748123E+01  3.8611445E+04
 4.1788132E+01  3.8342137E+04
 4.1828140E+01  3.7495641E+04
 4.1868149E+01  3.6291125E+04
 4.1908154E+01  3.4870898E+04
 4.1948162E+01  3.3426953E+04
 4.1988171E+01  3.2127041E+04
 4.2028179E+01  3.1023361E+04
 4.2068188E+01  3.0131775E+04
 4.2108192E+01  2.9444172E+04
 4.2148201E+01  2.8976549E+04
 4.2188210E+01  2.8758572E+04
 4.2228218E+01  2.8690906E+04
 4.2268227E+01  2.8822689E+04
 4.2308231E+01  2.9039775E+04
 4.2348240E+01  2.9304189E+04
 4.2388248E+01  2.9623543E+04
 4.2428257E+01  3.0029344E+04
 4.2468266E+01  3.0558746E+04
 4.2508270E+01  3.1249297E+04
 4.2548279E+01  3.2153174E+04
 4.2588287E+01  3.3316418E+04
 4.2628296E+01  3.4683348E+04
 4.2668304E+01  3.6115066E+04
 4.2708309E+01  3.7455637E+04
 4.2748318E+01  3.8475914E+04
 4.2788326E+01  3.8977711E+04
 4.2828335E+01  3.8883082E+04
 4.2868343E+01  3.8179484E+04
 4.2908348E+01  3.7032590E+04
 4.2948357E+01  3.5618922E+04
 4.2988365E+01  3.4084316E+04
 4.3028374E+01  3.2605973E+04
 4.3068382E+01  3.1318924E+04
 4.3108387E+01  3.0250094E+04
 4.3148396E+01  2.9438160E+04
 4.3188404E+01  2.8897318E+04
 4.3228413E+01  2.8529980E+04
 4.3268421E+01  2.8358443E+04
 4.3308426E+01  2.8283076E+04
 4.3348434E+01  2.8200668E+04
 4.3388443E+01  2.8005662E+04
 4.3428452E+01  2.7740613E+04
 4.3468460E+01  2.7411725E+04
 4.3508465E+01  2.7085928E+04
 4.3548473E+01  2.6777629E+04
 4.3588482E+01  2.6644656E+04
 4.3628490E+01  2.6577902E+04
 4.3668499E+01  2.6531646E+04
 4.3708504E+01  2.6489715E+04
 4.3748512E+01  2.6319967E+04
 4.3788521E+01  2.6040158E+04
 4.3828529E+01  2.5631576E+04
 4.3868538E+01  2.5167445E+04
 4.3908543E+01  2.4679148E+04
 4.3948551E+01  2.4257719E+04
 4.3988560E+01  2.3907908E+04
 4.4028568E+01  2.3613369E+04
 4.4068577E+01  2.3389172E+04
 4.4108582E+01  2.3280852E+04
 4.4148590E+01  2.3263875E+04
 4.4188599E+01  2.3317623E+04
 4.4228607E+01  2.3432156E+04
 4.4268616E+01  2.3679805E+04
 4.4308620E+01  2.3960438E+04
 4.4348629E+01  2.4278883E+04
 4.4388638E+01  2.4666092E+04
 4.4428646E+01  2.5117324E+04
 4.4468655E+01  2.5652291E+04
 4.4508659E+01  2.6303652E+04
 4.4548668E+01  2.7106109E+04
 4.4588676E+01  2.8029877E+04
 4.4628685E+01  2.9034350E+04
 4.4668694E+01  3.0046576E+04
 4.4708698E+01  3.0887900E+04
 4.4748707E+01  3.1418336E+04
 4.4788715E+01  3.1596809E+04
 4.4828724E+01  3.1424150E+04
 4.4868732E+01  3.1022980E+04
 4.4908737E+01  3.0446314E+04
 4.4948746E+01  2.9820158E+04
 4.4988754E+01  2.9208533E+04
 4.5028763E+01  2.8735859E+04
 4.5068771E+01  2.8424361E+04
 4.5108776E+01  2.8333934E+04
 4.5148785E+01  2.8432395E+04
 4.5188793E+01  2.8706518E+04
 4.5228802E+01  2.9116949E+04
 4.5268810E+01  2.9552691E+04
 4.5308815E+01  2.9956600E+04
 4.5348824E+01  3.0185129E+04
 4.5388832E+01  3.0217838E+04
 4.5428841E+01  3.0176457E+04
 4.5468849E+01  3.0158344E+04
 4.5508854E+01  3.0174643E+04
 4.5548862E+01  3.0367895E+04
 4.5588871E+01  3.0660656E+04
 4.5628880E+01  3.0978893E+04
 4.5668888E+01  3.1184342E+04
 4.5708893E+01  3.1322039E+04
 4.5748901E+01  3.1163498E+04
 4.5788910E+01  3.0690203E+04
 4.5828918E+01  3.0054908E+04
 4.5868927E+01  2.9315949E+04
 4.5908932E+01  2.8504730E+04
 4.5948940E+01  2.7776789E+04
 4.5988949E+01  2.7116277E+04
 4.6028957E+01  2.6568186E+04
 4.6068966E+01  2.6133057E+04
 4.6108971E+01  2.5833008E+04
 4.6148979E+01  2.5664078E+04
 4.6188988E+01  2.5584584E+04
 4.6228996E+01  2.5588107E+04
 4.6269005E+01  2.5668066E+04
 4.6309010E+01  2.5757158E+04
 4.6349018E+01  2.5946180E+04
 4.6389027E+01  2.6167217E+04
 4.6429035E+01  2.6481590E+04
 4.6469044E+01  2.6915225E+04
 4.6509048E+01  2.7494764E+04
 4.6549057E+01  2.8123344E+04
 4.6589066E+01  2.8757340E+04
 4.6629074E+01  2.9346088E+04
 4.6669083E+01  2.9699090E+04
 4.6709087E+01  2.9870492E+04
 4.6749096E+01  2.9766328E+04
 4.6789104E+01  2.9449197E+04
 4.6829113E+01  2.9029572E+04
 4.6869122E+01  2.8517812E+04
 4.6909126E+01  2.8046148E+04
 4.6949135E+01  2.7723719E+04
 4.6989143E+01  2.7485084E+04
 4.7029152E+01  2.7397496E+04
 4.7069160E+01  2.7508717E+04
 4.7109165E+01  2.7683707E+04
 4.7149174E+01  2.7918877E+04
 4.7189182E+01  2.8135990E+04
 4.7229191E+01  2.8239479E+04
 4.7269199E+01  2.8219514E+04
 4.7309204E+01  2.8082145E+04
 4.7349213E+01  2.7888105E+04
 4.7389221E+01  2.7716834E+04
 4.7429230E+01  2.7677111E+04
 4.7469238E+01  2.7669018E+04
 4.7509243E+01  2.7632018E+04
 4.7549252E+01  2.7551420E+04
 4.7589260E+01  2.7364500E+04
 4.7629269E+01  2.6997242E+04
 4.7669277E+01  2.6522607E+04
 4.7709282E+01  2.5973582E+04
 4.7749290E+01  2.5463447E+04
 4.7789299E+01  2.4968053E+04
 4.7829308E+01  2.4529125E+04
 4.7869316E+01  2.4216330E+04
 4.7909321E+01  2.4000463E+04
 4.7949329E+01  2.3960730E+04
 4.7989338E+01  2.3989535E+04
 4.8029346E+01  2.4069807E+04
 4.8069355E+01  2.4234160E+04
 4.8109360E+01  2.4358256E+04
 4.8149368E+01  2.4539463E+04
 4.8189377E+01  2.4922221E+04
 4.8229385E+01  2.5211387E+04
 4.8269394E+01  2.5470424E+04
 4.8309399E+01  2.5810369E+04
 4.8349407E+01  2.6173736E+04
 4.8389416E+01  2.6651668E+04
 4.8429424E+01  2.7094455E+04
 4.8469433E+01  2.7379289E+04
 4.8509438E+01  2.7505570E+04
 4.8549446E+01  2.7233053E+04
 4.8589455E+01  2.6936246E+04
 4.8629463E+01  2.6406207E+04
 4.8669472E+01  2.5779566E+04
 4.8709476E+01  2.5075898E+04
 4.8749485E+01  2.4416969E+04
 4.8789494E+01  2.3715086E+04
 4.8829502E+01  2.3301584E+04
 4.8869511E+01  2.2960363E+04
 4.8909515E+01  2.2737021E+04
 4.8949524E+01  2.2508709E+04
 4.8989532E+01  2.2408939E+04
 4.9029541E+01  2.2275682E+04
 4.9069550E+01  2.2217092E+04
 4.9109554E+01  2.2223389E+04
 4.9149563E+01  2.2227641E+04
 4.9189571E+01  2.2286848E+04
 4.9229580E+01  2.2370744E+04
 4.9269588E+01  2.2540703E+04
 4.9309593E+01  2.2727256E+04
 4.9349602E+01  2.2843227E+04
 4.9389610E+01  2.2981305E+04
 4.9429619E+01  2.3049756E+04
 4.9469627E+01  2.3033850E+04
 4.9509632E+01  2.2837322E+04
 4.9549641E+01  2.2660949E+04
 4.9589649E+01  2.2436350E+04
 4.9629658E+01  2.2328279E+04
 4.9669666E+01  2.2144156E+04
 4.9709671E+01  2.1799703E+04
 4.9749680E+01  2.1601412E+04
 4.9789688E+01  2.1449885E+04
 4.9829697E+01  2.1339674E+04
 4.9869705E+01  2.1291605E+04
 4.9909710E+01  2.1325504E+04
 4.9949718E+01  2.1464947E+04
 4.9989727E+01  2.1749395E+04
 5.0029736E+01  2.1945125E+04
 5.0069744E+01  2.2272908E+04
 5.0109749E+01  2.2712852E+04
 5.0149757E+01  2.3204193E+04
 5.0189766E+01  2.3750707E+04
 5.0229774E+01  2.4302596E+04
 5.0269783E+01  2.4820076E+04
 5.0309788E+01  2.5224355E+04
 5.0349796E+01  2.5497846E+04
 5.0389805E+01  2.5642094E+04
 5.0429813E+01  2.5518670E+04
 5.0469822E+01  2.5333637E+04
 5.0509827E+01  2.5003100E+04
 5.0549835E+01  2.4760396E+04
 5.0589844E+01  2.4549303E+04
 5.0629852E+01  2.4484934E+04
 5.0669861E+01  2.4473521E+04
 5.0709866E+01  2.4513133E+04
 5.0749874E+01  2.4629676E+04
 5.0789883E+01  2.4831576E+04
 5.0829891E+01  2.4993357E+04
 5.0869900E+01  2.5172139E+04
 5.0909904E+01  2.5241607E+04
 5.0949913E+01  2.5318168E+04
 5.0989922E+01  2.5372490E+04
 5.1029930E+01  2.5564994E+04
 5.1069939E+01  2.5710135E+04
 5.1109943E+01  2.5806246E+04
 5.1149952E+01  2.5889961E+04
 5.1189960E+01  2.5750117E+04
 5.1229969E+01  2.5438127E+04
 5.1269978E+01  2.5032182E+04
 5.1309986E+01  2.4578008E+04
 5.1349991E+01  2.3963996E+04
 5.1389999E+01  2.3431371E+04
 5.1430008E+01  2.2917766E+04
 5.1470016E+01  2.2571547E+04
 5.1510025E+01  2.2209492E+04
 5.1550030E+01  2.1939543E+04
 5.1590038E+01  2.1751928E+04
 5.1630047E+01  2.1611840E+04
 5.1670055E+01  2.1595881E+04
 5.1710064E+01  2.1646459E+04
 5.1750069E+01  2.1696322E+04
 5.1790077E+01  2.1824809E+04
 5.1830086E+01  2.2011178E+04
 5.1870094E+01  2.2286312E+04
 5.1910103E+01  2.2652855E+04
 5.1950108E+01  2.2973807E+04
 5.1990116E+01  2.3455225E+04
 5.2030125E+01  2.3743004E+04
 5.2070133E+01  2.4007354E+04
 5.2110142E+01  2.4108021E+04
 5.2150146E+01  2.4140943E+04
 5.2190155E+01  2.4010873E+04
 5.2230164E+01  2.3819611E+04
 5.2270172E+01  2.3521180E+04
 5.2310181E+01  2.3281715E+04
 5.2350185E+01  2.3037002E+04
 5.2390194E+01  2.2856434E+04
 5.2430202E+01  2.2721881E+04
 5.2470211E+01  2.2646832E+04
 5.2510220E+01  2.2642336E+04
 5.2550224E+01  2.2656498E+04
 5.2590233E+01  2.2719350E+04
 5.2630241E+01  2.2516209E+04
 5.2670250E+01  2.2344764E+04
 5.2710258E+01  2.2109818E+04
 5.2750263E+01  2.1999502E+04
 5.2790272E+01  2.1866629E+04
 5.2830280E+01  2.1842691E+04
 5.2870289E+01  2.1729570E+04
 5.2910297E+01  2.1623422E+04
 5.2950302E+01  2.1492469E+04
 5.2990311E+01  2.1339811E+04
 5.3030319E+01  2.1186332E+04
 5.3070328E+01  2.1084523E+04
 5.3110336E+01  2.0833553E+04
 5.3150341E+01  2.0770031E+04
 5.3190350E+01  2.0620439E+04
 5.3230358E+01  2.0587178E+04
 5.3270367E+01  2.0600236E+04
 5.3310375E+01  2.0680969E+04
 5.3350380E+01  2.0710576E+04
 5.3390388E+01  2.0838037E+04
 5.3430397E+01  2.0971742E+04
 5.3470406E+01  2.1113236E+04
 5.3510414E+01  2.1260600E+04
 5.3550419E+01  2.1512871E+04
 5.3590427E+01  2.1715904E+04
 5.3630436E+01  2.1977830E+04
 5.3670444E+01  2.2149701E+04
 5.3710453E+01  2.2460588E+04
 5.3750458E+01  2.2636982E+04
 5.3790466E+01  2.2710299E+04
 5.3830475E+01  2.2654039E+04
 5.3870483E+01  2.2553660E+04
 5.3910492E+01  2.2354572E+04
 5.3950497E+01  2.2046301E+04
 5.3990505E+01  2.1641906E+04
 5.4030514E+01  2.1397584E+04
 5.4070522E+01  2.1117262E+04
 5.4110531E+01  2.0827721E+04
 5.4150536E+01  2.0615047E+04
 5.4190544E+01  2.0437361E+04
 5.4230553E+01  2.0383910E+04
 5.4270561E+01  2.0277248E+04
 5.4310570E+01  2.0234703E+04
 5.4350574E+01  2.0117375E+04
 5.4390583E+01  2.0123660E+04
 5.4430592E+01  1.9925330E+04
 5.4470600E+01  1.9899373E+04
 5.4510609E+01  1.9856391E+04
 5.4550613E+01  1.9778180E+04
 5.4590622E+01  1.9716512E+04
 5.4630630E+01  1.9669141E+04
 5.4670639E+01  1.9593203E+04
 5.4710648E+01  1.9403598E+04
 5.4750652E+01  1.9252598E+04
 5.4790661E+01  1.9084818E+04
 5.4830669E+01  1.8994553E+04
 5.4870678E+01  1.8928494E+04
 5.4910686E+01  1.8838234E+04
 5.4950691E+01  1.8876020E+04
 5.4990700E+01  1.8907211E+04
 5.5030708E+01  1.8905291E+04
 5.5070717E+01  1.9018914E+04
 5.5110725E+01  1.9085068E+04
 5.5150730E+01  1.9173721E+04
 5.5190739E+01  1.9370432E+04
 5.5230747E+01  1.9496746E+04
 5.5270756E+01  1.9577975E+04
 5.5310764E+01  1.9799973E+04
 5.5350769E+01  1.9990930E+04
 5.5390778E+01  2.0177357E+04
 5.5430786E+01  2.0284922E+04
 5.5470795E+01  2.0451131E+04
 5.5510803E+01  2.0503580E+04
 5.5550808E+01  2.0516430E+04
 5.5590816E+01  2.0418652E+04
 5.5630825E+01  2.0437453E+04
 5.5670834E+01  2.0423982E+04
 5.5710842E+01  2.0338439E+04
 5.5750847E+01  2.0383742E+04
 5.5790855E+01  2.0460254E+04
 5.5830864E+01  2.0549975E+04
 5.5870872E+01  2.0705633E+04
 5.5910881E+01  2.0929006E+04
 5.5950886E+01  2.1015203E+04
 5.5990894E+01  2.1095771E+04
 5.6030903E+01  2.1313188E+04
 5.6070911E+01  2.1310566E+04
 5.6110920E+01  2.1378480E+04
 5.6150925E+01  2.1619162E+04
 5.6190933E+01  2.1596807E+04
 5.6230942E+01  2.1697988E+04
 5.6270950E+01  2.1620814E+04
 5.6310959E+01  2.1575570E+04
 5.6350964E+01  2.1354275E+04
 5.6390972E+01  2.1068480E+04
 5.6430981E+01  2.0646256E+04
 5.6470989E+01  2.0304926E+04
 5.6510998E+01  1.9940984E+04
 5.6551003E+01  1.9609439E+04
 5.6591011E+01  1.9325521E+04
 5.6631020E+01  1.9141863E+04
 5.6671028E+01  1.8852596E+04
 5.6711037E+01  1.8716287E+04
 5.6751041E+01  1.8440945E+04
 5.6791050E+01  1.8499139E+04
 5.6831059E+01  1.8319779E+04
 5.6871067E+01  1.8242740E+04
 5.6911076E+01  1.8035445E+04
 5.6951080E+01  1.8192418E+04
 5.6991089E+01  1.8327994E+04
 5.7031097E+01  1.8228664E+04
 5.7071106E+01  1.8238129E+04
 5.7111115E+01  1.8085203E+04
 5.7151119E+01  1.8102967E+04
 5.7191128E+01  1.8025029E+04
 5.7231136E+01  1.7659422E+04
 5.7271145E+01  1.7499953E+04
 5.7311153E+01  1.7413404E+04
 5.7351158E+01  1.7002387E+04
 5.7391167E+01  1.6744494E+04
 5.7431175E+01  1.6533576E+04
 5.7471184E+01  1.6273234E+04
 5.7511192E+01  1.5895791E+04
 5.7551197E+01  1.5910951E+04
 5.7591206E+01  1.5460827E+04
 5.7631214E+01  1.4872438E+04
 5.7671223E+01  1.4333391E+04
 5.7711231E+01  1.4973673E+04
 5.7751236E+01  1.4885935E+04
 5.7791245E+01  1.4670381E+04
 5.7831253E+01  1.4531897E+04
 5.7871262E+01  1.4555347E+04
 5.7911270E+01  1.4845415E+04
 5.7951275E+01  1.4912133E+04
 5.7991283E+01  1.4978902E+04
 5.8031292E+01  1.5011070E+04
 5.8071301E+01  1.4885744E+04
 5.8111309E+01  1.4156006E+04
 5.8151314E+01  1.3892616E+04
 5.8191322E+01  1.3190628E+04
 5.8231331E+01  1.2852066E+04
 5.8271339E+01  1.1749496E+04
 5.8311348E+01  1.0492297E+04
 5.8351353E+01  8.2582578E+03
 5.8391361E+01  7.4756558E+03
 5.8431370E+01  7.0321494E+03
 5.8471378E+01  6.5144634E+03
 5.8511387E+01  4.8100425E+03
 5.8551392E+01  3.4004910E+03
 5.8591400E+01  2.3644824E+03
