Pt_bulk_ramp03-00905.tif: 2-theta Scan
2-Theta Angle (Degrees)

       1465
 2.0003892E-02  0.0000000E+00
 6.0011677E-02  0.0000000E+00
 1.0001946E-01  0.0000000E+00
 1.4002724E-01  0.0000000E+00
 1.8003502E-01  0.0000000E+00
 2.2004281E-01  0.0000000E+00
 2.6005059E-01  0.0000000E+00
 3.0005839E-01  0.0000000E+00
 3.4006616E-01  0.0000000E+00
 3.8007396E-01  0.0000000E+00
 4.2008173E-01  0.0000000E+00
 4.6008953E-01  0.0000000E+00
 5.0009733E-01  0.0000000E+00
 5.4010510E-01  0.0000000E+00
 5.8011287E-01  0.0000000E+00
 6.2012064E-01  0.0000000E+00
 6.6012847E-01  0.0000000E+00
 7.0013624E-01  0.0000000E+00
 7.4014401E-01  1.6193487E+04
 7.8015178E-01  1.8988584E+04
 8.2015961E-01  2.9803988E+04
 8.6016738E-01  4.9035055E+04
 9.0017515E-01  7.5105180E+04
 9.4018292E-01  8.9356250E+04
 9.8019075E-01  8.9721852E+04
 1.0201985E+00  8.4598695E+04
 1.0602063E+00  7.8414773E+04
 1.1002141E+00  7.3911633E+04
 1.1402218E+00  6.9343383E+04
 1.1802297E+00  6.5697008E+04
 1.2202375E+00  6.2898973E+04
 1.2602452E+00  6.0395141E+04
 1.3002530E+00  5.8381336E+04
 1.3402607E+00  5.6731988E+04
 1.3802686E+00  5.5241945E+04
 1.4202764E+00  5.4128418E+04
 1.4602841E+00  5.3174844E+04
 1.5002919E+00  5.2178516E+04
 1.5402998E+00  5.1371902E+04
 1.5803075E+00  5.0624590E+04
 1.6203153E+00  4.9954277E+04
 1.6603230E+00  4.9499664E+04
 1.7003309E+00  4.9324469E+04
 1.7403387E+00  4.9640297E+04
 1.7803464E+00  5.0006395E+04
 1.8203542E+00  4.9770762E+04
 1.8603621E+00  4.8870492E+04
 1.9003698E+00  4.7813562E+04
 1.9403776E+00  4.7322066E+04
 1.9803853E+00  4.7330516E+04
 2.0203931E+00  4.7585445E+04
 2.0604010E+00  4.7812043E+04
 2.1004088E+00  4.7809910E+04
 2.1404164E+00  4.7587445E+04
 2.1804242E+00  4.7344938E+04
 2.2204320E+00  4.7257445E+04
 2.2604399E+00  4.7394656E+04
 2.3004477E+00  4.7514688E+04
 2.3404555E+00  4.7775082E+04
 2.3804631E+00  4.8013816E+04
 2.4204710E+00  4.8271598E+04
 2.4604788E+00  4.8536371E+04
 2.5004866E+00  4.8928824E+04
 2.5404944E+00  4.9476457E+04
 2.5805020E+00  4.9862020E+04
 2.6205099E+00  5.0030969E+04
 2.6605177E+00  4.9776387E+04
 2.7005255E+00  4.9056762E+04
 2.7405334E+00  4.8142559E+04
 2.7805409E+00  4.7205172E+04
 2.8205488E+00  4.6448551E+04
 2.8605566E+00  4.5941461E+04
 2.9005644E+00  4.5496777E+04
 2.9405723E+00  4.4911492E+04
 2.9805801E+00  4.3981668E+04
 3.0205877E+00  4.2897996E+04
 3.0605955E+00  4.1944062E+04
 3.1006033E+00  4.1231168E+04
 3.1406112E+00  4.0745277E+04
 3.1806190E+00  4.0310102E+04
 3.2206266E+00  3.9997641E+04
 3.2606344E+00  3.9797723E+04
 3.3006423E+00  3.9689250E+04
 3.3406501E+00  3.9786668E+04
 3.3806579E+00  4.0103387E+04
 3.4206655E+00  4.0463523E+04
 3.4606733E+00  4.0620840E+04
 3.5006812E+00  4.0518203E+04
 3.5406890E+00  4.0371543E+04
 3.5806968E+00  4.0371398E+04
 3.6207047E+00  4.0392023E+04
 3.6607122E+00  4.0361918E+04
 3.7007201E+00  4.0220340E+04
 3.7407279E+00  4.0094250E+04
 3.7807357E+00  3.9970031E+04
 3.8207436E+00  3.9774273E+04
 3.8607512E+00  3.9569703E+04
 3.9007590E+00  3.9431070E+04
 3.9407668E+00  3.9361754E+04
 3.9807746E+00  3.9354160E+04
 4.0207825E+00  3.9440844E+04
 4.0607901E+00  3.9678223E+04
 4.1007981E+00  3.9971355E+04
 4.1408057E+00  4.0272258E+04
 4.1808133E+00  4.0602465E+04
 4.2208214E+00  4.0966062E+04
 4.2608290E+00  4.1384430E+04
 4.3008370E+00  4.1919621E+04
 4.3408446E+00  4.2643852E+04
 4.3808522E+00  4.3563949E+04
 4.4208603E+00  4.4655477E+04
 4.4608679E+00  4.5987473E+04
 4.5008759E+00  4.7501465E+04
 4.5408835E+00  4.9179062E+04
 4.5808916E+00  5.1137770E+04
 4.6208992E+00  5.3433703E+04
 4.6609068E+00  5.6087164E+04
 4.7009149E+00  5.9159074E+04
 4.7409225E+00  6.2838676E+04
 4.7809305E+00  6.7381344E+04
 4.8209381E+00  7.3047039E+04
 4.8609457E+00  8.0070852E+04
 4.9009538E+00  8.8929273E+04
 4.9409614E+00  1.0041113E+05
 4.9809694E+00  1.1527395E+05
 5.0209770E+00  1.3559573E+05
 5.0609846E+00  1.6391122E+05
 5.1009927E+00  2.0425345E+05
 5.1410003E+00  2.6876706E+05
 5.1810083E+00  3.8173128E+05
 5.2210159E+00  6.0429950E+05
 5.2610235E+00  1.0932395E+06
 5.3010316E+00  2.0145702E+06
 5.3410392E+00  3.1484198E+06
 5.3810472E+00  3.6753555E+06
 5.4210548E+00  3.6772185E+06
 5.4610624E+00  3.1305602E+06
 5.5010705E+00  1.9988948E+06
 5.5410781E+00  1.0477256E+06
 5.5810862E+00  5.6264381E+05
 5.6210938E+00  3.4787584E+05
 5.6611013E+00  2.4602659E+05
 5.7011094E+00  1.9596675E+05
 5.7411170E+00  1.6976023E+05
 5.7811251E+00  1.5664322E+05
 5.8211327E+00  1.5275373E+05
 5.8611407E+00  1.5620228E+05
 5.9011483E+00  1.6803072E+05
 5.9411559E+00  1.9075298E+05
 5.9811640E+00  2.3125605E+05
 6.0211716E+00  3.0624866E+05
 6.0611796E+00  4.4696741E+05
 6.1011872E+00  7.1721944E+05
 6.1411948E+00  1.1689739E+06
 6.1812029E+00  1.7066791E+06
 6.2212105E+00  2.0639266E+06
 6.2612185E+00  1.9669052E+06
 6.3012261E+00  1.4869560E+06
 6.3412337E+00  9.2320350E+05
 6.3812418E+00  5.2733506E+05
 6.4212494E+00  3.0473872E+05
 6.4612575E+00  1.9376977E+05
 6.5012650E+00  1.3623588E+05
 6.5412726E+00  1.0398038E+05
 6.5812807E+00  8.4921266E+04
 6.6212883E+00  7.2554992E+04
 6.6612964E+00  6.4022551E+04
 6.7013040E+00  5.7986250E+04
 6.7413116E+00  5.3457746E+04
 6.7813196E+00  4.9995676E+04
 6.8213272E+00  4.7289863E+04
 6.8613353E+00  4.5025906E+04
 6.9013429E+00  4.3120113E+04
 6.9413505E+00  4.1490410E+04
 6.9813585E+00  4.0012980E+04
 7.0213661E+00  3.8809805E+04
 7.0613742E+00  3.7844680E+04
 7.1013818E+00  3.6978223E+04
 7.1413898E+00  3.6247125E+04
 7.1813974E+00  3.5638816E+04
 7.2214050E+00  3.5120594E+04
 7.2614131E+00  3.4685098E+04
 7.3014207E+00  3.4330035E+04
 7.3414288E+00  3.4072629E+04
 7.3814363E+00  3.3904082E+04
 7.4214439E+00  3.3752219E+04
 7.4614520E+00  3.3626676E+04
 7.5014596E+00  3.3558605E+04
 7.5414677E+00  3.3517328E+04
 7.5814753E+00  3.3539672E+04
 7.6214828E+00  3.3596438E+04
 7.6614909E+00  3.3731152E+04
 7.7014985E+00  3.3998410E+04
 7.7415066E+00  3.4333496E+04
 7.7815142E+00  3.4692961E+04
 7.8215218E+00  3.5134004E+04
 7.8615298E+00  3.5643512E+04
 7.9015374E+00  3.6272820E+04
 7.9415455E+00  3.7047648E+04
 7.9815531E+00  3.7920246E+04
 8.0215607E+00  3.8928551E+04
 8.0615683E+00  4.0095211E+04
 8.1015768E+00  4.1483961E+04
 8.1415844E+00  4.3138598E+04
 8.1815920E+00  4.5146250E+04
 8.2215996E+00  4.7573867E+04
 8.2616072E+00  5.0549348E+04
 8.3016157E+00  5.4310113E+04
 8.3416233E+00  5.9065188E+04
 8.3816309E+00  6.5232188E+04
 8.4216385E+00  7.3446312E+04
 8.4616461E+00  8.4581969E+04
 8.5016546E+00  1.0032002E+05
 8.5416622E+00  1.2408680E+05
 8.5816698E+00  1.6206717E+05
 8.6216774E+00  2.2863433E+05
 8.6616850E+00  3.5348581E+05
 8.7016935E+00  5.7869131E+05
 8.7417011E+00  9.3248281E+05
 8.7817087E+00  1.3127226E+06
 8.8217163E+00  1.5168674E+06
 8.8617239E+00  1.3941314E+06
 8.9017324E+00  1.0393846E+06
 8.9417400E+00  6.5889794E+05
 8.9817476E+00  3.9150953E+05
 9.0217552E+00  2.4043331E+05
 9.0617638E+00  1.6041522E+05
 9.1017714E+00  1.1830950E+05
 9.1417789E+00  9.4767648E+04
 9.1817865E+00  8.0562516E+04
 9.2217941E+00  7.1682531E+04
 9.2618027E+00  6.5826094E+04
 9.3018103E+00  6.1881516E+04
 9.3418179E+00  5.9288188E+04
 9.3818254E+00  5.7569098E+04
 9.4218330E+00  5.6513516E+04
 9.4618416E+00  5.6070004E+04
 9.5018492E+00  5.6034250E+04
 9.5418568E+00  5.6395230E+04
 9.5818644E+00  5.7200000E+04
 9.6218719E+00  5.8477105E+04
 9.6618805E+00  6.0295215E+04
 9.7018881E+00  6.2708582E+04
 9.7418957E+00  6.5912992E+04
 9.7819033E+00  6.9993055E+04
 9.8219109E+00  7.5138375E+04
 9.8619194E+00  8.1829648E+04
 9.9019270E+00  9.0469555E+04
 9.9419346E+00  1.0215880E+05
 9.9819422E+00  1.1824619E+05
 1.0021950E+01  1.4069967E+05
 1.0061958E+01  1.7396066E+05
 1.0101966E+01  2.2640406E+05
 1.0141973E+01  3.1360956E+05
 1.0181981E+01  4.6709244E+05
 1.0221989E+01  7.3165256E+05
 1.0261997E+01  1.1186185E+06
 1.0302005E+01  1.5382854E+06
 1.0342012E+01  1.7686902E+06
 1.0382020E+01  1.6676770E+06
 1.0422028E+01  1.2945031E+06
 1.0462036E+01  8.7387538E+05
 1.0502044E+01  5.5529319E+05
 1.0542051E+01  3.6701856E+05
 1.0582059E+01  2.7350156E+05
 1.0622066E+01  2.4144191E+05
 1.0662075E+01  2.6068522E+05
 1.0702083E+01  3.3246125E+05
 1.0742090E+01  4.4789866E+05
 1.0782098E+01  5.5352344E+05
 1.0822105E+01  5.7706331E+05
 1.0862114E+01  4.9383228E+05
 1.0902122E+01  3.5612541E+05
 1.0942129E+01  2.3255761E+05
 1.0982137E+01  1.5118573E+05
 1.1022144E+01  1.0586920E+05
 1.1062153E+01  8.1056914E+04
 1.1102160E+01  6.6957586E+04
 1.1142168E+01  5.8381992E+04
 1.1182176E+01  5.2677629E+04
 1.1222183E+01  4.8662090E+04
 1.1262192E+01  4.5738211E+04
 1.1302199E+01  4.3478875E+04
 1.1342207E+01  4.1723715E+04
 1.1382215E+01  4.0339121E+04
 1.1422222E+01  3.9189570E+04
 1.1462231E+01  3.8263191E+04
 1.1502238E+01  3.7477711E+04
 1.1542246E+01  3.6761375E+04
 1.1582253E+01  3.6176949E+04
 1.1622262E+01  3.5707070E+04
 1.1662270E+01  3.5350391E+04
 1.1702277E+01  3.5110289E+04
 1.1742285E+01  3.4976961E+04
 1.1782292E+01  3.4981277E+04
 1.1822301E+01  3.5122223E+04
 1.1862309E+01  3.5383664E+04
 1.1902316E+01  3.5824891E+04
 1.1942324E+01  3.6603125E+04
 1.1982331E+01  3.7874707E+04
 1.2022340E+01  3.9898379E+04
 1.2062347E+01  4.1291066E+04
 1.2102355E+01  4.3076117E+04
 1.2142363E+01  4.5810719E+04
 1.2182370E+01  5.0348598E+04
 1.2222379E+01  5.7064336E+04
 1.2262386E+01  6.7431562E+04
 1.2302394E+01  8.3758984E+04
 1.2342402E+01  1.0947887E+05
 1.2382409E+01  1.4648616E+05
 1.2422418E+01  1.8920006E+05
 1.2462425E+01  2.2183819E+05
 1.2502433E+01  2.2627819E+05
 1.2542440E+01  2.0023791E+05
 1.2582448E+01  1.5801588E+05
 1.2622457E+01  1.1803580E+05
 1.2662464E+01  8.9043867E+04
 1.2702472E+01  7.0635250E+04
 1.2742479E+01  5.9756109E+04
 1.2782487E+01  5.3488020E+04
 1.2822495E+01  4.9982840E+04
 1.2862503E+01  4.8193547E+04
 1.2902511E+01  4.7547465E+04
 1.2942518E+01  4.7737598E+04
 1.2982526E+01  4.8605863E+04
 1.3022534E+01  5.0097465E+04
 1.3062542E+01  5.2242059E+04
 1.3102550E+01  5.5134293E+04
 1.3142557E+01  5.8935609E+04
 1.3182565E+01  6.3961602E+04
 1.3222573E+01  7.0604766E+04
 1.3262581E+01  7.9509492E+04
 1.3302588E+01  9.1875188E+04
 1.3342596E+01  1.0964620E+05
 1.3382604E+01  1.3683416E+05
 1.3422612E+01  1.8071394E+05
 1.3462620E+01  2.5316884E+05
 1.3502627E+01  3.6676138E+05
 1.3542635E+01  5.1632456E+05
 1.3582643E+01  6.5527356E+05
 1.3622651E+01  7.1616612E+05
 1.3662659E+01  6.6737712E+05
 1.3702666E+01  5.5007244E+05
 1.3742674E+01  4.3415125E+05
 1.3782681E+01  3.6827944E+05
 1.3822690E+01  3.6773434E+05
 1.3862698E+01  4.2891884E+05
 1.3902705E+01  5.2810394E+05
 1.3942713E+01  6.1242306E+05
 1.3982720E+01  6.2493594E+05
 1.4022729E+01  5.4927788E+05
 1.4062737E+01  4.2450803E+05
 1.4102744E+01  3.0188628E+05
 1.4142752E+01  2.1029562E+05
 1.4182760E+01  1.5048466E+05
 1.4222768E+01  1.1342335E+05
 1.4262775E+01  9.0733664E+04
 1.4302783E+01  7.6452141E+04
 1.4342791E+01  6.7123250E+04
 1.4382799E+01  6.0861613E+04
 1.4422807E+01  5.6512016E+04
 1.4462814E+01  5.3419719E+04
 1.4502822E+01  5.1183055E+04
 1.4542830E+01  4.9612969E+04
 1.4582838E+01  4.8575262E+04
 1.4622846E+01  4.8022781E+04
 1.4662853E+01  4.7898723E+04
 1.4702861E+01  4.8173551E+04
 1.4742868E+01  4.8860848E+04
 1.4782877E+01  5.0074496E+04
 1.4822885E+01  5.1865898E+04
 1.4862892E+01  5.4441789E+04
 1.4902900E+01  5.8046418E+04
 1.4942907E+01  6.2987527E+04
 1.4982916E+01  6.9908344E+04
 1.5022923E+01  7.9908969E+04
 1.5062931E+01  9.4880641E+04
 1.5102939E+01  1.1835204E+05
 1.5142946E+01  1.5592545E+05
 1.5182955E+01  2.1466988E+05
 1.5222962E+01  2.9463119E+05
 1.5262970E+01  3.7743828E+05
 1.5302978E+01  4.2687825E+05
 1.5342985E+01  4.1516891E+05
 1.5382994E+01  3.4985450E+05
 1.5423001E+01  2.6479644E+05
 1.5463009E+01  1.9066344E+05
 1.5503016E+01  1.3846208E+05
 1.5543024E+01  1.0536834E+05
 1.5583033E+01  8.5399438E+04
 1.5623040E+01  7.3593445E+04
 1.5663048E+01  6.6790992E+04
 1.5703055E+01  6.3181512E+04
 1.5743063E+01  6.1825867E+04
 1.5783072E+01  6.2256602E+04
 1.5823079E+01  6.4412594E+04
 1.5863087E+01  6.8451195E+04
 1.5903094E+01  7.4869852E+04
 1.5943102E+01  8.4573852E+04
 1.5983110E+01  9.9099492E+04
 1.6023117E+01  1.2130388E+05
 1.6063126E+01  1.5584589E+05
 1.6103134E+01  2.0828170E+05
 1.6143141E+01  2.8055659E+05
 1.6183149E+01  3.6071106E+05
 1.6223156E+01  4.1934844E+05
 1.6263165E+01  4.2643381E+05
 1.6303173E+01  3.7744031E+05
 1.6343180E+01  2.9763978E+05
 1.6383188E+01  2.1880350E+05
 1.6423195E+01  1.5768741E+05
 1.6463203E+01  1.1608695E+05
 1.6503212E+01  8.9277828E+04
 1.6543219E+01  7.2110547E+04
 1.6583227E+01  6.0921465E+04
 1.6623234E+01  5.3429422E+04
 1.6663242E+01  4.8261305E+04
 1.6703251E+01  4.4581816E+04
 1.6743258E+01  4.1945223E+04
 1.6783266E+01  3.9999945E+04
 1.6823273E+01  3.8539785E+04
 1.6863281E+01  3.7457508E+04
 1.6903290E+01  3.6668945E+04
 1.6943296E+01  3.6102578E+04
 1.6983305E+01  3.5758422E+04
 1.7023312E+01  3.5558090E+04
 1.7063320E+01  3.5500883E+04
 1.7103329E+01  3.5628215E+04
 1.7143335E+01  3.5927770E+04
 1.7183344E+01  3.6435488E+04
 1.7223351E+01  3.7188188E+04
 1.7263359E+01  3.8240324E+04
 1.7303368E+01  3.9667363E+04
 1.7343374E+01  4.1569391E+04
 1.7383383E+01  4.4199062E+04
 1.7423389E+01  4.7905129E+04
 1.7463398E+01  5.3277355E+04
 1.7503407E+01  6.1397410E+04
 1.7543413E+01  7.3695125E+04
 1.7583422E+01  9.1411133E+04
 1.7623428E+01  1.1322001E+05
 1.7663437E+01  1.3311464E+05
 1.7703445E+01  1.4273577E+05
 1.7743452E+01  1.3753564E+05
 1.7783461E+01  1.2095990E+05
 1.7823467E+01  1.0101208E+05
 1.7863476E+01  8.4003875E+04
 1.7903484E+01  7.2201594E+04
 1.7943491E+01  6.5188816E+04
 1.7983500E+01  6.1802320E+04
 1.8023508E+01  6.1117660E+04
 1.8063515E+01  6.2640707E+04
 1.8103523E+01  6.6009117E+04
 1.8143530E+01  7.1380906E+04
 1.8183538E+01  7.9249531E+04
 1.8223547E+01  9.0539539E+04
 1.8263554E+01  1.0693526E+05
 1.8303562E+01  1.3135209E+05
 1.8343569E+01  1.6811578E+05
 1.8383577E+01  2.2168111E+05
 1.8423586E+01  2.9159734E+05
 1.8463593E+01  3.6447400E+05
 1.8503601E+01  4.1544753E+05
 1.8543608E+01  4.2444341E+05
 1.8583616E+01  3.9480288E+05
 1.8623625E+01  3.5116512E+05
 1.8663631E+01  3.1919831E+05
 1.8703640E+01  3.0833009E+05
 1.8743647E+01  3.0880259E+05
 1.8783655E+01  3.0154425E+05
 1.8823664E+01  2.7415969E+05
 1.8863670E+01  2.2986153E+05
 1.8903679E+01  1.8169367E+05
 1.8943686E+01  1.4052312E+05
 1.8983694E+01  1.1009070E+05
 1.9023703E+01  8.9152602E+04
 1.9063709E+01  7.5167320E+04
 1.9103718E+01  6.5878898E+04
 1.9143724E+01  5.9641277E+04
 1.9183733E+01  5.5429988E+04
 1.9223742E+01  5.2587730E+04
 1.9263748E+01  5.0753449E+04
 1.9303757E+01  4.9740547E+04
 1.9343763E+01  4.9460453E+04
 1.9383772E+01  4.9891359E+04
 1.9423780E+01  5.1118520E+04
 1.9463787E+01  5.3327930E+04
 1.9503796E+01  5.6757801E+04
 1.9543802E+01  6.1949926E+04
 1.9583811E+01  6.9686758E+04
 1.9623819E+01  8.0997266E+04
 1.9663826E+01  9.6786359E+04
 1.9703835E+01  1.1672427E+05
 1.9743841E+01  1.3738097E+05
 1.9783850E+01  1.5202820E+05
 1.9823858E+01  1.5445086E+05
 1.9863865E+01  1.4346202E+05
 1.9903873E+01  1.2413445E+05
 1.9943880E+01  1.0340266E+05
 1.9983889E+01  8.5861625E+04
 2.0023897E+01  7.3037438E+04
 2.0063904E+01  6.4455922E+04
 2.0103912E+01  5.9160223E+04
 2.0143919E+01  5.6464547E+04
 2.0183928E+01  5.5775594E+04
 2.0223936E+01  5.6834398E+04
 2.0263943E+01  5.9797289E+04
 2.0303951E+01  6.5103547E+04
 2.0343958E+01  7.3596586E+04
 2.0383966E+01  8.6618766E+04
 2.0423975E+01  1.0539699E+05
 2.0463982E+01  1.2879589E+05
 2.0503990E+01  1.5193427E+05
 2.0543997E+01  1.6759250E+05
 2.0584005E+01  1.7157839E+05
 2.0624014E+01  1.6696278E+05
 2.0664021E+01  1.6117416E+05
 2.0704029E+01  1.5924269E+05
 2.0744036E+01  1.5951233E+05
 2.0784044E+01  1.5604208E+05
 2.0824053E+01  1.4442491E+05
 2.0864059E+01  1.2567441E+05
 2.0904068E+01  1.0464812E+05
 2.0944075E+01  8.5655906E+04
 2.0984083E+01  7.0789828E+04
 2.1024092E+01  6.0023203E+04
 2.1064098E+01  5.2495293E+04
 2.1104107E+01  4.7316969E+04
 2.1144114E+01  4.3743668E+04
 2.1184122E+01  4.1260902E+04
 2.1224131E+01  3.9534406E+04
 2.1264137E+01  3.8421062E+04
 2.1304146E+01  3.7780027E+04
 2.1344152E+01  3.7589168E+04
 2.1384161E+01  3.7762445E+04
 2.1424170E+01  3.8244281E+04
 2.1464176E+01  3.9284789E+04
 2.1504185E+01  4.1026562E+04
 2.1544191E+01  4.3816703E+04
 2.1584200E+01  4.7966543E+04
 2.1624208E+01  5.3445301E+04
 2.1664215E+01  5.9355922E+04
 2.1704224E+01  6.3802516E+04
 2.1744230E+01  6.4993891E+04
 2.1784239E+01  6.2751320E+04
 2.1824247E+01  5.8573473E+04
 2.1864254E+01  5.4425000E+04
 2.1904263E+01  5.1540980E+04
 2.1944269E+01  5.0341008E+04
 2.1984278E+01  5.0765535E+04
 2.2024286E+01  5.2696977E+04
 2.2064293E+01  5.6180492E+04
 2.2104301E+01  6.1467797E+04
 2.2144308E+01  6.9130250E+04
 2.2184317E+01  8.0054641E+04
 2.2224325E+01  9.5451484E+04
 2.2264332E+01  1.1631359E+05
 2.2304340E+01  1.4169938E+05
 2.2344347E+01  1.6739197E+05
 2.2384356E+01  1.8639600E+05
 2.2424364E+01  1.9296978E+05
 2.2464371E+01  1.8755156E+05
 2.2504379E+01  1.7607175E+05
 2.2544386E+01  1.6454258E+05
 2.2584394E+01  1.5465627E+05
 2.2624403E+01  1.4400719E+05
 2.2664410E+01  1.3028630E+05
 2.2704418E+01  1.1376111E+05
 2.2744425E+01  9.6956461E+04
 2.2784433E+01  8.2322484E+04
 2.2824442E+01  7.0948906E+04
 2.2864449E+01  6.2735766E+04
 2.2904457E+01  5.7097895E+04
 2.2944464E+01  5.3440758E+04
 2.2984472E+01  5.1290445E+04
 2.3024481E+01  5.0326094E+04
 2.3064487E+01  5.0381570E+04
 2.3104496E+01  5.1403195E+04
 2.3144505E+01  5.3468809E+04
 2.3184511E+01  5.6792793E+04
 2.3224520E+01  6.1775766E+04
 2.3264526E+01  6.9130148E+04
 2.3304535E+01  7.9929578E+04
 2.3344543E+01  9.5121609E+04
 2.3384550E+01  1.1440999E+05
 2.3424559E+01  1.3487328E+05
 2.3464565E+01  1.5041847E+05
 2.3504574E+01  1.5505873E+05
 2.3544582E+01  1.4723598E+05
 2.3584589E+01  1.3097724E+05
 2.3624598E+01  1.1253210E+05
 2.3664604E+01  9.6624352E+04
 2.3704613E+01  8.5153578E+04
 2.3744621E+01  7.8149383E+04
 2.3784628E+01  7.5110422E+04
 2.3824636E+01  7.5743750E+04
 2.3864643E+01  8.0032023E+04
 2.3904652E+01  8.8421289E+04
 2.3944660E+01  1.0178388E+05
 2.3984667E+01  1.2073848E+05
 2.4024675E+01  1.4393045E+05
 2.4064682E+01  1.6646962E+05
 2.4104691E+01  1.8069688E+05
 2.4144699E+01  1.8055523E+05
 2.4184706E+01  1.6588402E+05
 2.4224714E+01  1.4243261E+05
 2.4264721E+01  1.1741895E+05
 2.4304729E+01  9.5688570E+04
 2.4344738E+01  7.8705664E+04
 2.4384745E+01  6.6110219E+04
 2.4424753E+01  5.7010836E+04
 2.4464760E+01  5.0524695E+04
 2.4504768E+01  4.5825141E+04
 2.4544777E+01  4.2376500E+04
 2.4584784E+01  3.9812926E+04
 2.4624792E+01  3.7921574E+04
 2.4664799E+01  3.6534230E+04
 2.4704807E+01  3.5525980E+04
 2.4744816E+01  3.4810957E+04
 2.4784822E+01  3.4374516E+04
 2.4824831E+01  3.4184758E+04
 2.4864838E+01  3.4245656E+04
 2.4904846E+01  3.4594195E+04
 2.4944855E+01  3.5296316E+04
 2.4984861E+01  3.6308551E+04
 2.5024870E+01  3.7568230E+04
 2.5064877E+01  3.8896555E+04
 2.5104885E+01  3.9963531E+04
 2.5144894E+01  4.0484188E+04
 2.5184900E+01  4.0411719E+04
 2.5224909E+01  3.9926117E+04
 2.5264915E+01  3.9400984E+04
 2.5304924E+01  3.9181711E+04
 2.5344933E+01  3.9400891E+04
 2.5384939E+01  4.0219402E+04
 2.5424948E+01  4.1748223E+04
 2.5464954E+01  4.4131355E+04
 2.5504963E+01  4.7618168E+04
 2.5544971E+01  5.2487293E+04
 2.5584978E+01  5.9002230E+04
 2.5624987E+01  6.7216195E+04
 2.5664993E+01  7.6493055E+04
 2.5705002E+01  8.5698547E+04
 2.5745010E+01  9.3784398E+04
 2.5785017E+01  1.0056141E+05
 2.5825026E+01  1.0649918E+05
 2.5865032E+01  1.1134792E+05
 2.5905041E+01  1.1333778E+05
 2.5945049E+01  1.1037845E+05
 2.5985056E+01  1.0208909E+05
 2.6025064E+01  9.0520172E+04
 2.6065071E+01  7.8334344E+04
 2.6105080E+01  6.7649969E+04
 2.6145088E+01  5.9289992E+04
 2.6185095E+01  5.3168109E+04
 2.6225103E+01  4.8921176E+04
 2.6265110E+01  4.6199711E+04
 2.6305119E+01  4.4654879E+04
 2.6345127E+01  4.4133215E+04
 2.6385134E+01  4.4540176E+04
 2.6425142E+01  4.5907836E+04
 2.6465149E+01  4.8368191E+04
 2.6505157E+01  5.2127949E+04
 2.6545166E+01  5.7251961E+04
 2.6585173E+01  6.3497188E+04
 2.6625181E+01  6.9937797E+04
 2.6665188E+01  7.4862438E+04
 2.6705196E+01  7.6644188E+04
 2.6745205E+01  7.4831523E+04
 2.6785212E+01  7.0432672E+04
 2.6825220E+01  6.5139156E+04
 2.6865227E+01  6.0481598E+04
 2.6905235E+01  5.7302492E+04
 2.6945244E+01  5.5887832E+04
 2.6985250E+01  5.6338094E+04
 2.7025259E+01  5.8778758E+04
 2.7065266E+01  6.3492164E+04
 2.7105274E+01  7.0742625E+04
 2.7145283E+01  8.0328516E+04
 2.7185289E+01  9.0990438E+04
 2.7225298E+01  1.0023805E+05
 2.7265305E+01  1.0557883E+05
 2.7305313E+01  1.0593784E+05
 2.7345322E+01  1.0240289E+05
 2.7385328E+01  9.6738695E+04
 2.7425337E+01  9.0017531E+04
 2.7465343E+01  8.2563805E+04
 2.7505352E+01  7.4499242E+04
 2.7545361E+01  6.6365469E+04
 2.7585367E+01  5.9018664E+04
 2.7625376E+01  5.2973867E+04
 2.7665382E+01  4.8336387E+04
 2.7705391E+01  4.4969984E+04
 2.7745399E+01  4.2644578E+04
 2.7785406E+01  4.1186531E+04
 2.7825415E+01  4.0431801E+04
 2.7865421E+01  4.0336785E+04
 2.7905430E+01  4.0882238E+04
 2.7945438E+01  4.2090438E+04
 2.7985445E+01  4.4015828E+04
 2.8025454E+01  4.6722020E+04
 2.8065460E+01  5.0011465E+04
 2.8105469E+01  5.3360691E+04
 2.8145477E+01  5.5933707E+04
 2.8185484E+01  5.7051719E+04
 2.8225492E+01  5.6648754E+04
 2.8265501E+01  5.5296473E+04
 2.8305508E+01  5.3858211E+04
 2.8345516E+01  5.3011480E+04
 2.8385523E+01  5.3275352E+04
 2.8425531E+01  5.4952566E+04
 2.8465540E+01  5.8307562E+04
 2.8505547E+01  6.3579422E+04
 2.8545555E+01  7.1056297E+04
 2.8585562E+01  8.0645461E+04
 2.8625570E+01  9.1417180E+04
 2.8665579E+01  1.0139584E+05
 2.8705585E+01  1.0841938E+05
 2.8745594E+01  1.1132874E+05
 2.8785601E+01  1.1048971E+05
 2.8825609E+01  1.0690830E+05
 2.8865618E+01  1.0126195E+05
 2.8905624E+01  9.3730266E+04
 2.8945633E+01  8.4706617E+04
 2.8985640E+01  7.5137961E+04
 2.9025648E+01  6.6117352E+04
 2.9065657E+01  5.8416574E+04
 2.9105663E+01  5.2276246E+04
 2.9145672E+01  4.7572781E+04
 2.9185678E+01  4.4149137E+04
 2.9225687E+01  4.1768805E+04
 2.9265696E+01  4.0228418E+04
 2.9305702E+01  3.9414559E+04
 2.9345711E+01  3.9322121E+04
 2.9385717E+01  3.9971945E+04
 2.9425726E+01  4.1426312E+04
 2.9465734E+01  4.3598449E+04
 2.9505741E+01  4.6100781E+04
 2.9545750E+01  4.8196105E+04
 2.9585756E+01  4.9153730E+04
 2.9625765E+01  4.8623555E+04
 2.9665773E+01  4.6948188E+04
 2.9705780E+01  4.4857199E+04
 2.9745789E+01  4.3050227E+04
 2.9785795E+01  4.1968891E+04
 2.9825804E+01  4.1817070E+04
 2.9865812E+01  4.2631031E+04
 2.9905819E+01  4.4417605E+04
 2.9945827E+01  4.7093316E+04
 2.9985834E+01  5.0323512E+04
 3.0025843E+01  5.3409414E+04
 3.0065851E+01  5.5361176E+04
 3.0105858E+01  5.5456074E+04
 3.0145866E+01  5.3583859E+04
 3.0185873E+01  5.0244918E+04
 3.0225882E+01  4.6309988E+04
 3.0265890E+01  4.2535828E+04
 3.0305897E+01  3.9298645E+04
 3.0345905E+01  3.6736102E+04
 3.0385912E+01  3.4775504E+04
 3.0425920E+01  3.3355676E+04
 3.0465929E+01  3.2378873E+04
 3.0505936E+01  3.1771738E+04
 3.0545944E+01  3.1506990E+04
 3.0585951E+01  3.1521951E+04
 3.0625959E+01  3.1821096E+04
 3.0665968E+01  3.2446828E+04
 3.0705975E+01  3.3464438E+04
 3.0745983E+01  3.4904551E+04
 3.0785990E+01  3.6790312E+04
 3.0825998E+01  3.9074086E+04
 3.0866007E+01  4.1403684E+04
 3.0906013E+01  4.3239090E+04
 3.0946022E+01  4.4255598E+04
 3.0986029E+01  4.4367324E+04
 3.1026037E+01  4.3907578E+04
 3.1066046E+01  4.3441695E+04
 3.1106052E+01  4.3453340E+04
 3.1146061E+01  4.4241531E+04
 3.1186068E+01  4.6051656E+04
 3.1226076E+01  4.9104449E+04
 3.1266085E+01  5.3516789E+04
 3.1306091E+01  5.9098383E+04
 3.1346100E+01  6.5206730E+04
 3.1386106E+01  7.0635117E+04
 3.1426115E+01  7.4060922E+04
 3.1466124E+01  7.4861336E+04
 3.1506130E+01  7.3279461E+04
 3.1546139E+01  7.0008453E+04
 3.1586145E+01  6.5752219E+04
 3.1626154E+01  6.1077992E+04
 3.1666162E+01  5.6379469E+04
 3.1706169E+01  5.2038398E+04
 3.1746178E+01  4.8348598E+04
 3.1786184E+01  4.5507297E+04
 3.1826193E+01  4.3551211E+04
 3.1866201E+01  4.2435797E+04
 3.1906208E+01  4.2131078E+04
 3.1946217E+01  4.2605098E+04
 3.1986223E+01  4.3927316E+04
 3.2026234E+01  4.6153262E+04
 3.2066238E+01  4.9318152E+04
 3.2106247E+01  5.3232715E+04
 3.2146255E+01  5.7437262E+04
 3.2186264E+01  6.1043910E+04
 3.2226273E+01  6.3097273E+04
 3.2266277E+01  6.3000832E+04
 3.2306286E+01  6.1100445E+04
 3.2346294E+01  5.8246812E+04
 3.2386303E+01  5.5399137E+04
 3.2426311E+01  5.3307941E+04
 3.2466316E+01  5.2390805E+04
 3.2506325E+01  5.2811629E+04
 3.2546333E+01  5.4626613E+04
 3.2586342E+01  5.7655707E+04
 3.2626350E+01  6.1273430E+04
 3.2666355E+01  6.4603848E+04
 3.2706364E+01  6.6664477E+04
 3.2746372E+01  6.6869633E+04
 3.2786381E+01  6.5227711E+04
 3.2826389E+01  6.2163516E+04
 3.2866394E+01  5.8242242E+04
 3.2906403E+01  5.3896355E+04
 3.2946411E+01  4.9458121E+04
 3.2986420E+01  4.5312695E+04
 3.3026428E+01  4.1664422E+04
 3.3066433E+01  3.8625422E+04
 3.3106441E+01  3.6183230E+04
 3.3146450E+01  3.4281504E+04
 3.3186459E+01  3.2827949E+04
 3.3226467E+01  3.1731041E+04
 3.3266472E+01  3.0921039E+04
 3.3306480E+01  3.0346160E+04
 3.3346489E+01  2.9976916E+04
 3.3386497E+01  2.9770996E+04
 3.3426506E+01  2.9767213E+04
 3.3466511E+01  2.9901258E+04
 3.3506519E+01  3.0213180E+04
 3.3546528E+01  3.0718771E+04
 3.3586536E+01  3.1423826E+04
 3.3626545E+01  3.2409758E+04
 3.3666550E+01  3.3752453E+04
 3.3706558E+01  3.5500258E+04
 3.3746567E+01  3.7775602E+04
 3.3786575E+01  4.0680168E+04
 3.3826584E+01  4.4152918E+04
 3.3866589E+01  4.8060355E+04
 3.3906597E+01  5.2010770E+04
 3.3946606E+01  5.5607984E+04
 3.3986614E+01  5.8472746E+04
 3.4026623E+01  6.0250688E+04
 3.4066628E+01  6.0672301E+04
 3.4106636E+01  5.9514871E+04
 3.4146645E+01  5.6828773E+04
 3.4186653E+01  5.3089637E+04
 3.4226662E+01  4.9021395E+04
 3.4266666E+01  4.5238227E+04
 3.4306675E+01  4.2076449E+04
 3.4346684E+01  3.9660141E+04
 3.4386692E+01  3.8000836E+04
 3.4426701E+01  3.7012602E+04
 3.4466705E+01  3.6659496E+04
 3.4506714E+01  3.6898293E+04
 3.4546722E+01  3.7621898E+04
 3.4586731E+01  3.8698297E+04
 3.4626740E+01  3.9880805E+04
 3.4666744E+01  4.0768781E+04
 3.4706753E+01  4.1030633E+04
 3.4746761E+01  4.0549715E+04
 3.4786770E+01  3.9522305E+04
 3.4826778E+01  3.8308117E+04
 3.4866783E+01  3.7205875E+04
 3.4906792E+01  3.6489277E+04
 3.4946800E+01  3.6267871E+04
 3.4986809E+01  3.6519371E+04
 3.5026817E+01  3.7215992E+04
 3.5066822E+01  3.8073684E+04
 3.5106831E+01  3.8729918E+04
 3.5146839E+01  3.8807664E+04
 3.5186848E+01  3.8143246E+04
 3.5226856E+01  3.6813449E+04
 3.5266861E+01  3.5110258E+04
 3.5306870E+01  3.3377742E+04
 3.5346878E+01  3.1821918E+04
 3.5386887E+01  3.0538305E+04
 3.5426895E+01  2.9559475E+04
 3.5466900E+01  2.8844787E+04
 3.5506908E+01  2.8357896E+04
 3.5546917E+01  2.8093066E+04
 3.5586926E+01  2.8012162E+04
 3.5626934E+01  2.8111912E+04
 3.5666939E+01  2.8418732E+04
 3.5706947E+01  2.8900234E+04
 3.5746956E+01  2.9535438E+04
 3.5786964E+01  3.0353412E+04
 3.5826973E+01  3.1269689E+04
 3.5866978E+01  3.2214871E+04
 3.5906986E+01  3.3199395E+04
 3.5946995E+01  3.4172324E+04
 3.5987003E+01  3.5299832E+04
 3.6027012E+01  3.6764105E+04
 3.6067017E+01  3.8693301E+04
 3.6107025E+01  4.1215531E+04
 3.6147034E+01  4.4460156E+04
 3.6187042E+01  4.8242352E+04
 3.6227051E+01  5.2292387E+04
 3.6267056E+01  5.6002379E+04
 3.6307064E+01  5.8665172E+04
 3.6347073E+01  5.9831629E+04
 3.6387081E+01  5.9404637E+04
 3.6427090E+01  5.7602488E+04
 3.6467094E+01  5.4854602E+04
 3.6507103E+01  5.1554020E+04
 3.6547112E+01  4.8056887E+04
 3.6587120E+01  4.4769793E+04
 3.6627129E+01  4.1906672E+04
 3.6667133E+01  3.9631512E+04
 3.6707142E+01  3.7924504E+04
 3.6747150E+01  3.6776145E+04
 3.6787159E+01  3.6163047E+04
 3.6827168E+01  3.6068004E+04
 3.6867172E+01  3.6464457E+04
 3.6907181E+01  3.7268613E+04
 3.6947189E+01  3.8226805E+04
 3.6987198E+01  3.9136008E+04
 3.7027206E+01  3.9684039E+04
 3.7067211E+01  3.9738855E+04
 3.7107220E+01  3.9435551E+04
 3.7147228E+01  3.8965430E+04
 3.7187237E+01  3.8653375E+04
 3.7227245E+01  3.8751020E+04
 3.7267250E+01  3.9345965E+04
 3.7307259E+01  4.0543473E+04
 3.7347267E+01  4.2163281E+04
 3.7387276E+01  4.3936285E+04
 3.7427284E+01  4.5501160E+04
 3.7467289E+01  4.6487629E+04
 3.7507298E+01  4.6696383E+04
 3.7547306E+01  4.6060988E+04
 3.7587315E+01  4.4739777E+04
 3.7627323E+01  4.2865223E+04
 3.7667328E+01  4.0664578E+04
 3.7707336E+01  3.8464047E+04
 3.7747345E+01  3.6366688E+04
 3.7787354E+01  3.4611605E+04
 3.7827362E+01  3.3229887E+04
 3.7867367E+01  3.2222865E+04
 3.7907375E+01  3.1547629E+04
 3.7947384E+01  3.1205947E+04
 3.7987392E+01  3.1184693E+04
 3.8027401E+01  3.1374406E+04
 3.8067406E+01  3.1744408E+04
 3.8107414E+01  3.2130865E+04
 3.8147423E+01  3.2366988E+04
 3.8187431E+01  3.2403811E+04
 3.8227440E+01  3.2258785E+04
 3.8267445E+01  3.2101902E+04
 3.8307453E+01  3.2118898E+04
 3.8347462E+01  3.2340711E+04
 3.8387470E+01  3.2838723E+04
 3.8427479E+01  3.3619531E+04
 3.8467484E+01  3.4536930E+04
 3.8507492E+01  3.5412621E+04
 3.8547501E+01  3.6021605E+04
 3.8587509E+01  3.6206383E+04
 3.8627518E+01  3.5883152E+04
 3.8667522E+01  3.5202234E+04
 3.8707531E+01  3.4298121E+04
 3.8747540E+01  3.3415398E+04
 3.8787548E+01  3.2339742E+04
 3.8827557E+01  3.1511910E+04
 3.8867561E+01  3.0923629E+04
 3.8907570E+01  3.0605000E+04
 3.8947578E+01  3.0539080E+04
 3.8987587E+01  3.0777039E+04
 3.9027596E+01  3.1343266E+04
 3.9067600E+01  3.2191834E+04
 3.9107609E+01  3.3241859E+04
 3.9147617E+01  3.4464207E+04
 3.9187626E+01  3.5513086E+04
 3.9227634E+01  3.6213758E+04
 3.9267639E+01  3.6495660E+04
 3.9307648E+01  3.6353125E+04
 3.9347656E+01  3.6001336E+04
 3.9387665E+01  3.5659582E+04
 3.9427673E+01  3.5583203E+04
 3.9467678E+01  3.5909547E+04
 3.9507687E+01  3.6589551E+04
 3.9547695E+01  3.7476316E+04
 3.9587704E+01  3.8237613E+04
 3.9627712E+01  3.8537754E+04
 3.9667717E+01  3.8159734E+04
 3.9707726E+01  3.7107828E+04
 3.9747734E+01  3.5534461E+04
 3.9787743E+01  3.3790238E+04
 3.9827751E+01  3.2135596E+04
 3.9867756E+01  3.0700156E+04
 3.9907764E+01  2.9499170E+04
 3.9947773E+01  2.8576232E+04
 3.9987782E+01  2.7893770E+04
 4.0027790E+01  2.7390352E+04
 4.0067795E+01  2.7132432E+04
 4.0107803E+01  2.6983480E+04
 4.0147812E+01  2.7087164E+04
 4.0187820E+01  2.7233635E+04
 4.0227829E+01  2.7445688E+04
 4.0267834E+01  2.7686008E+04
 4.0307842E+01  2.7878736E+04
 4.0347851E+01  2.8019871E+04
 4.0387859E+01  2.8187250E+04
 4.0427868E+01  2.8413004E+04
 4.0467873E+01  2.8747045E+04
 4.0507881E+01  2.9265959E+04
 4.0547890E+01  2.9999729E+04
 4.0587898E+01  3.0983465E+04
 4.0627907E+01  3.2194266E+04
 4.0667912E+01  3.3549430E+04
 4.0707920E+01  3.4917348E+04
 4.0747929E+01  3.6098059E+04
 4.0787937E+01  3.6900738E+04
 4.0827946E+01  3.7135672E+04
 4.0867950E+01  3.6779117E+04
 4.0907959E+01  3.5885492E+04
 4.0947968E+01  3.4729055E+04
 4.0987976E+01  3.3515148E+04
 4.1027985E+01  3.2444016E+04
 4.1067993E+01  3.1651480E+04
 4.1107998E+01  3.1164004E+04
 4.1148006E+01  3.0934408E+04
 4.1188015E+01  3.1005432E+04
 4.1228024E+01  3.1334250E+04
 4.1268032E+01  3.1836361E+04
 4.1308037E+01  3.2334971E+04
 4.1348045E+01  3.2761867E+04
 4.1388054E+01  3.3052996E+04
 4.1428062E+01  3.3259766E+04
 4.1468071E+01  3.3453266E+04
 4.1508076E+01  3.3848797E+04
 4.1548084E+01  3.4494332E+04
 4.1588093E+01  3.5383137E+04
 4.1628101E+01  3.6444145E+04
 4.1668110E+01  3.7497320E+04
 4.1708115E+01  3.8301832E+04
 4.1748123E+01  3.8620520E+04
 4.1788132E+01  3.8354809E+04
 4.1828140E+01  3.7492809E+04
 4.1868149E+01  3.6260332E+04
 4.1908154E+01  3.4852582E+04
 4.1948162E+01  3.3445426E+04
 4.1988171E+01  3.2151238E+04
 4.2028179E+01  3.1045924E+04
 4.2068188E+01  3.0152373E+04
 4.2108192E+01  2.9469629E+04
 4.2148201E+01  2.9048287E+04
 4.2188210E+01  2.8799465E+04
 4.2228218E+01  2.8735000E+04
 4.2268227E+01  2.8847443E+04
 4.2308231E+01  2.9068205E+04
 4.2348240E+01  2.9331090E+04
 4.2388248E+01  2.9673631E+04
 4.2428257E+01  3.0083967E+04
 4.2468266E+01  3.0599943E+04
 4.2508270E+01  3.1297061E+04
 4.2548279E+01  3.2177395E+04
 4.2588287E+01  3.3334020E+04
 4.2628296E+01  3.4693871E+04
 4.2668304E+01  3.6167703E+04
 4.2708309E+01  3.7497172E+04
 4.2748318E+01  3.8475844E+04
 4.2788326E+01  3.8968523E+04
 4.2828335E+01  3.8853391E+04
 4.2868343E+01  3.8165668E+04
 4.2908348E+01  3.7043832E+04
 4.2948357E+01  3.5610715E+04
 4.2988365E+01  3.4094691E+04
 4.3028374E+01  3.2597209E+04
 4.3068382E+01  3.1299527E+04
 4.3108387E+01  3.0261477E+04
 4.3148396E+01  2.9472441E+04
 4.3188404E+01  2.8915883E+04
 4.3228413E+01  2.8546102E+04
 4.3268421E+01  2.8373562E+04
 4.3308426E+01  2.8295932E+04
 4.3348434E+01  2.8216742E+04
 4.3388443E+01  2.8021594E+04
 4.3428452E+01  2.7731721E+04
 4.3468460E+01  2.7410842E+04
 4.3508465E+01  2.7085676E+04
 4.3548473E+01  2.6800369E+04
 4.3588482E+01  2.6672457E+04
 4.3628490E+01  2.6579949E+04
 4.3668499E+01  2.6555629E+04
 4.3708504E+01  2.6523576E+04
 4.3748512E+01  2.6358391E+04
 4.3788521E+01  2.6064107E+04
 4.3828529E+01  2.5657822E+04
 4.3868538E+01  2.5200262E+04
 4.3908543E+01  2.4712920E+04
 4.3948551E+01  2.4264117E+04
 4.3988560E+01  2.3888232E+04
 4.4028568E+01  2.3616852E+04
 4.4068577E+01  2.3417287E+04
 4.4108582E+01  2.3306059E+04
 4.4148590E+01  2.3275238E+04
 4.4188599E+01  2.3341188E+04
 4.4228607E+01  2.3449855E+04
 4.4268616E+01  2.3690691E+04
 4.4308620E+01  2.3968172E+04
 4.4348629E+01  2.4324221E+04
 4.4388638E+01  2.4690582E+04
 4.4428646E+01  2.5145178E+04
 4.4468655E+01  2.5668971E+04
 4.4508659E+01  2.6328854E+04
 4.4548668E+01  2.7133068E+04
 4.4588676E+01  2.8079428E+04
 4.4628685E+01  2.9071471E+04
 4.4668694E+01  3.0049424E+04
 4.4708698E+01  3.0874582E+04
 4.4748707E+01  3.1406125E+04
 4.4788715E+01  3.1576084E+04
 4.4828724E+01  3.1446441E+04
 4.4868732E+01  3.1003059E+04
 4.4908737E+01  3.0422637E+04
 4.4948746E+01  2.9800000E+04
 4.4988754E+01  2.9217961E+04
 4.5028763E+01  2.8724770E+04
 4.5068771E+01  2.8455535E+04
 4.5108776E+01  2.8360199E+04
 4.5148785E+01  2.8457461E+04
 4.5188793E+01  2.8734223E+04
 4.5228802E+01  2.9132334E+04
 4.5268810E+01  2.9580152E+04
 4.5308815E+01  2.9970469E+04
 4.5348824E+01  3.0193676E+04
 4.5388832E+01  3.0238439E+04
 4.5428841E+01  3.0188561E+04
 4.5468849E+01  3.0170072E+04
 4.5508854E+01  3.0176680E+04
 4.5548862E+01  3.0364072E+04
 4.5588871E+01  3.0661729E+04
 4.5628880E+01  3.1013652E+04
 4.5668888E+01  3.1232963E+04
 4.5708893E+01  3.1332463E+04
 4.5748901E+01  3.1150342E+04
 4.5788910E+01  3.0677955E+04
 4.5828918E+01  3.0056975E+04
 4.5868927E+01  2.9322148E+04
 4.5908932E+01  2.8525441E+04
 4.5948940E+01  2.7789350E+04
 4.5988949E+01  2.7121578E+04
 4.6028957E+01  2.6574082E+04
 4.6068966E+01  2.6153980E+04
 4.6108971E+01  2.5867199E+04
 4.6148979E+01  2.5713709E+04
 4.6188988E+01  2.5631715E+04
 4.6228996E+01  2.5631609E+04
 4.6269005E+01  2.5714154E+04
 4.6309010E+01  2.5795029E+04
 4.6349018E+01  2.5960654E+04
 4.6389027E+01  2.6184684E+04
 4.6429035E+01  2.6480695E+04
 4.6469044E+01  2.6932789E+04
 4.6509048E+01  2.7497537E+04
 4.6549057E+01  2.8127383E+04
 4.6589066E+01  2.8767018E+04
 4.6629074E+01  2.9351480E+04
 4.6669083E+01  2.9719383E+04
 4.6709087E+01  2.9850236E+04
 4.6749096E+01  2.9762922E+04
 4.6789104E+01  2.9453023E+04
 4.6829113E+01  2.8995445E+04
 4.6869122E+01  2.8501818E+04
 4.6909126E+01  2.8024428E+04
 4.6949135E+01  2.7701248E+04
 4.6989143E+01  2.7504598E+04
 4.7029152E+01  2.7431184E+04
 4.7069160E+01  2.7532369E+04
 4.7109165E+01  2.7691920E+04
 4.7149174E+01  2.7937781E+04
 4.7189182E+01  2.8128752E+04
 4.7229191E+01  2.8216881E+04
 4.7269199E+01  2.8202023E+04
 4.7309204E+01  2.8079143E+04
 4.7349213E+01  2.7888361E+04
 4.7389221E+01  2.7728928E+04
 4.7429230E+01  2.7662568E+04
 4.7469238E+01  2.7670396E+04
 4.7509243E+01  2.7637066E+04
 4.7549252E+01  2.7557971E+04
 4.7589260E+01  2.7362133E+04
 4.7629269E+01  2.6986525E+04
 4.7669277E+01  2.6502357E+04
 4.7709282E+01  2.5953141E+04
 4.7749290E+01  2.5440281E+04
 4.7789299E+01  2.4950092E+04
 4.7829308E+01  2.4530068E+04
 4.7869316E+01  2.4231189E+04
 4.7909321E+01  2.4025291E+04
 4.7949329E+01  2.3959576E+04
 4.7989338E+01  2.3997908E+04
 4.8029346E+01  2.4112119E+04
 4.8069355E+01  2.4254723E+04
 4.8109360E+01  2.4400121E+04
 4.8149368E+01  2.4551514E+04
 4.8189377E+01  2.4914688E+04
 4.8229385E+01  2.5202217E+04
 4.8269394E+01  2.5495801E+04
 4.8309399E+01  2.5803715E+04
 4.8349407E+01  2.6196783E+04
 4.8389416E+01  2.6661256E+04
 4.8429424E+01  2.7071113E+04
 4.8469433E+01  2.7390234E+04
 4.8509438E+01  2.7507004E+04
 4.8549446E+01  2.7234289E+04
 4.8589455E+01  2.6937686E+04
 4.8629463E+01  2.6376506E+04
 4.8669472E+01  2.5753332E+04
 4.8709476E+01  2.5105500E+04
 4.8749485E+01  2.4427955E+04
 4.8789494E+01  2.3727900E+04
 4.8829502E+01  2.3309131E+04
 4.8869511E+01  2.2969119E+04
 4.8909515E+01  2.2728631E+04
 4.8949524E+01  2.2519551E+04
 4.8989532E+01  2.2420645E+04
 4.9029541E+01  2.2285176E+04
 4.9069550E+01  2.2194957E+04
 4.9109554E+01  2.2236004E+04
 4.9149563E+01  2.2209887E+04
 4.9189571E+01  2.2265334E+04
 4.9229580E+01  2.2399447E+04
 4.9269588E+01  2.2561701E+04
 4.9309593E+01  2.2689586E+04
 4.9349602E+01  2.2829361E+04
 4.9389610E+01  2.2981617E+04
 4.9429619E+01  2.3028135E+04
 4.9469627E+01  2.3013082E+04
 4.9509632E+01  2.2815826E+04
 4.9549641E+01  2.2655609E+04
 4.9589649E+01  2.2433367E+04
 4.9629658E+01  2.2266551E+04
 4.9669666E+01  2.2095996E+04
 4.9709671E+01  2.1788666E+04
 4.9749680E+01  2.1571682E+04
 4.9789688E+01  2.1451061E+04
 4.9829697E+01  2.1337824E+04
 4.9869705E+01  2.1333961E+04
 4.9909710E+01  2.1358457E+04
 4.9949718E+01  2.1461439E+04
 4.9989727E+01  2.1696500E+04
 5.0029736E+01  2.1960568E+04
 5.0069744E+01  2.2257004E+04
 5.0109749E+01  2.2689414E+04
 5.0149757E+01  2.3165240E+04
 5.0189766E+01  2.3753014E+04
 5.0229774E+01  2.4334732E+04
 5.0269783E+01  2.4788805E+04
 5.0309788E+01  2.5210088E+04
 5.0349796E+01  2.5478375E+04
 5.0389805E+01  2.5578725E+04
 5.0429813E+01  2.5501578E+04
 5.0469822E+01  2.5295623E+04
 5.0509827E+01  2.5019154E+04
 5.0549835E+01  2.4766115E+04
 5.0589844E+01  2.4557469E+04
 5.0629852E+01  2.4470326E+04
 5.0669861E+01  2.4462490E+04
 5.0709866E+01  2.4479965E+04
 5.0749874E+01  2.4658777E+04
 5.0789883E+01  2.4814629E+04
 5.0829891E+01  2.5020191E+04
 5.0869900E+01  2.5133322E+04
 5.0909904E+01  2.5214367E+04
 5.0949913E+01  2.5323256E+04
 5.0989922E+01  2.5353260E+04
 5.1029930E+01  2.5531205E+04
 5.1069939E+01  2.5697498E+04
 5.1109943E+01  2.5776918E+04
 5.1149952E+01  2.5842752E+04
 5.1189960E+01  2.5741879E+04
 5.1229969E+01  2.5418281E+04
 5.1269978E+01  2.5038330E+04
 5.1309986E+01  2.4547469E+04
 5.1349991E+01  2.3942904E+04
 5.1389999E+01  2.3382188E+04
 5.1430008E+01  2.2913412E+04
 5.1470016E+01  2.2569318E+04
 5.1510025E+01  2.2193840E+04
 5.1550030E+01  2.1927842E+04
 5.1590038E+01  2.1762818E+04
 5.1630047E+01  2.1599221E+04
 5.1670055E+01  2.1639225E+04
 5.1710064E+01  2.1644119E+04
 5.1750069E+01  2.1705627E+04
 5.1790077E+01  2.1850588E+04
 5.1830086E+01  2.2016068E+04
 5.1870094E+01  2.2328742E+04
 5.1910103E+01  2.2674205E+04
 5.1950108E+01  2.3002984E+04
 5.1990116E+01  2.3373557E+04
 5.2030125E+01  2.3686840E+04
 5.2070133E+01  2.3972820E+04
 5.2110142E+01  2.4150182E+04
 5.2150146E+01  2.4149799E+04
 5.2190155E+01  2.3999449E+04
 5.2230164E+01  2.3804412E+04
 5.2270172E+01  2.3445102E+04
 5.2310181E+01  2.3216732E+04
 5.2350185E+01  2.2992773E+04
 5.2390194E+01  2.2840182E+04
 5.2430202E+01  2.2755387E+04
 5.2470211E+01  2.2684697E+04
 5.2510220E+01  2.2643646E+04
 5.2550224E+01  2.2599891E+04
 5.2590233E+01  2.2667107E+04
 5.2630241E+01  2.2505959E+04
 5.2670250E+01  2.2339098E+04
 5.2710258E+01  2.2113018E+04
 5.2750263E+01  2.1978064E+04
 5.2790272E+01  2.1843484E+04
 5.2830280E+01  2.1755445E+04
 5.2870289E+01  2.1674566E+04
 5.2910297E+01  2.1586826E+04
 5.2950302E+01  2.1453023E+04
 5.2990311E+01  2.1328871E+04
 5.3030319E+01  2.1182266E+04
 5.3070328E+01  2.1028908E+04
 5.3110336E+01  2.0844791E+04
 5.3150341E+01  2.0704828E+04
 5.3190350E+01  2.0598119E+04
 5.3230358E+01  2.0551691E+04
 5.3270367E+01  2.0589953E+04
 5.3310375E+01  2.0638873E+04
 5.3350380E+01  2.0754010E+04
 5.3390388E+01  2.0886416E+04
 5.3430397E+01  2.0924297E+04
 5.3470406E+01  2.1122012E+04
 5.3510414E+01  2.1303113E+04
 5.3550419E+01  2.1516061E+04
 5.3590427E+01  2.1690207E+04
 5.3630436E+01  2.1925441E+04
 5.3670444E+01  2.2164332E+04
 5.3710453E+01  2.2434602E+04
 5.3750458E+01  2.2625926E+04
 5.3790466E+01  2.2707961E+04
 5.3830475E+01  2.2715010E+04
 5.3870483E+01  2.2579199E+04
 5.3910492E+01  2.2356521E+04
 5.3950497E+01  2.2042102E+04
 5.3990505E+01  2.1618250E+04
 5.4030514E+01  2.1381408E+04
 5.4070522E+01  2.1051535E+04
 5.4110531E+01  2.0811633E+04
 5.4150536E+01  2.0664967E+04
 5.4190544E+01  2.0496207E+04
 5.4230553E+01  2.0387508E+04
 5.4270561E+01  2.0332824E+04
 5.4310570E+01  2.0268072E+04
 5.4350574E+01  2.0124467E+04
 5.4390583E+01  2.0122508E+04
 5.4430592E+01  1.9939738E+04
 5.4470600E+01  1.9895355E+04
 5.4510609E+01  1.9838061E+04
 5.4550613E+01  1.9719338E+04
 5.4590622E+01  1.9668705E+04
 5.4630630E+01  1.9609100E+04
 5.4670639E+01  1.9508916E+04
 5.4710648E+01  1.9397533E+04
 5.4750652E+01  1.9249867E+04
 5.4790661E+01  1.9079047E+04
 5.4830669E+01  1.9031158E+04
 5.4870678E+01  1.8919979E+04
 5.4910686E+01  1.8842631E+04
 5.4950691E+01  1.8891371E+04
 5.4990700E+01  1.8913088E+04
 5.5030708E+01  1.8937850E+04
 5.5070717E+01  1.9096176E+04
 5.5110725E+01  1.9137730E+04
 5.5150730E+01  1.9225041E+04
 5.5190739E+01  1.9355863E+04
 5.5230747E+01  1.9462908E+04
 5.5270756E+01  1.9547354E+04
 5.5310764E+01  1.9722514E+04
 5.5350769E+01  1.9951795E+04
 5.5390778E+01  2.0145906E+04
 5.5430786E+01  2.0300816E+04
 5.5470795E+01  2.0462457E+04
 5.5510803E+01  2.0444414E+04
 5.5550808E+01  2.0381756E+04
 5.5590816E+01  2.0411115E+04
 5.5630825E+01  2.0454080E+04
 5.5670834E+01  2.0374029E+04
 5.5710842E+01  2.0365074E+04
 5.5750847E+01  2.0417818E+04
 5.5790855E+01  2.0474318E+04
 5.5830864E+01  2.0557975E+04
 5.5870872E+01  2.0601482E+04
 5.5910881E+01  2.0836568E+04
 5.5950886E+01  2.0953842E+04
 5.5990894E+01  2.0988785E+04
 5.6030903E+01  2.1248365E+04
 5.6070911E+01  2.1300846E+04
 5.6110920E+01  2.1390689E+04
 5.6150925E+01  2.1529875E+04
 5.6190933E+01  2.1504906E+04
 5.6230942E+01  2.1692980E+04
 5.6270950E+01  2.1589115E+04
 5.6310959E+01  2.1536572E+04
 5.6350964E+01  2.1340865E+04
 5.6390972E+01  2.1103398E+04
 5.6430981E+01  2.0655182E+04
 5.6470989E+01  2.0269389E+04
 5.6510998E+01  2.0143926E+04
 5.6551003E+01  1.9689348E+04
 5.6591011E+01  1.9299914E+04
 5.6631020E+01  1.8990193E+04
 5.6671028E+01  1.8908219E+04
 5.6711037E+01  1.8747354E+04
 5.6751041E+01  1.8541719E+04
 5.6791050E+01  1.8490988E+04
 5.6831059E+01  1.8200453E+04
 5.6871067E+01  1.8187369E+04
 5.6911076E+01  1.8197170E+04
 5.6951080E+01  1.8166291E+04
 5.6991089E+01  1.8208314E+04
 5.7031097E+01  1.8219129E+04
 5.7071106E+01  1.8183330E+04
 5.7111115E+01  1.8036023E+04
 5.7151119E+01  1.7997281E+04
 5.7191128E+01  1.8021326E+04
 5.7231136E+01  1.7795109E+04
 5.7271145E+01  1.7547768E+04
 5.7311153E+01  1.7341168E+04
 5.7351158E+01  1.6896842E+04
 5.7391167E+01  1.6764340E+04
 5.7431175E+01  1.6471682E+04
 5.7471184E+01  1.6397061E+04
 5.7511192E+01  1.5868949E+04
 5.7551197E+01  1.5859145E+04
 5.7591206E+01  1.5313621E+04
 5.7631214E+01  1.4873982E+04
 5.7671223E+01  1.4464630E+04
 5.7711231E+01  1.4867389E+04
 5.7751236E+01  1.4872596E+04
 5.7791245E+01  1.4517651E+04
 5.7831253E+01  1.4562362E+04
 5.7871262E+01  1.4564267E+04
 5.7911270E+01  1.4857741E+04
 5.7951275E+01  1.4972270E+04
 5.7991283E+01  1.5065258E+04
 5.8031292E+01  1.5197990E+04
 5.8071301E+01  1.5033629E+04
 5.8111309E+01  1.4162915E+04
 5.8151314E+01  1.4037622E+04
 5.8191322E+01  1.3271486E+04
 5.8231331E+01  1.2838458E+04
 5.8271339E+01  1.1819158E+04
 5.8311348E+01  1.0365755E+04
 5.8351353E+01  8.1737314E+03
 5.8391361E+01  7.5409243E+03
 5.8431370E+01  6.9731396E+03
 5.8471378E+01  6.4730093E+03
 5.8511387E+01  5.0166006E+03
 5.8551392E+01  3.2311958E+03
 5.8591400E+01  1.8669346E+03
