Pt_bulk_ramp03-00903.tif: 2-theta Scan
2-Theta Angle (Degrees)

       1465
 2.0003892E-02  0.0000000E+00
 6.0011677E-02  0.0000000E+00
 1.0001946E-01  0.0000000E+00
 1.4002724E-01  0.0000000E+00
 1.8003502E-01  0.0000000E+00
 2.2004281E-01  0.0000000E+00
 2.6005059E-01  0.0000000E+00
 3.0005839E-01  0.0000000E+00
 3.4006616E-01  0.0000000E+00
 3.8007396E-01  0.0000000E+00
 4.2008173E-01  0.0000000E+00
 4.6008953E-01  0.0000000E+00
 5.0009733E-01  0.0000000E+00
 5.4010510E-01  0.0000000E+00
 5.8011287E-01  0.0000000E+00
 6.2012064E-01  0.0000000E+00
 6.6012847E-01  0.0000000E+00
 7.0013624E-01  0.0000000E+00
 7.4014401E-01  1.6065436E+04
 7.8015178E-01  1.8917432E+04
 8.2015961E-01  2.9683189E+04
 8.6016738E-01  4.8657461E+04
 9.0017515E-01  7.4630352E+04
 9.4018292E-01  8.8876336E+04
 9.8019075E-01  8.9126977E+04
 1.0201985E+00  8.3927961E+04
 1.0602063E+00  7.7788539E+04
 1.1002141E+00  7.3284555E+04
 1.1402218E+00  6.8776250E+04
 1.1802297E+00  6.5199371E+04
 1.2202375E+00  6.2446629E+04
 1.2602452E+00  6.0043363E+04
 1.3002530E+00  5.8042906E+04
 1.3402607E+00  5.6342961E+04
 1.3802686E+00  5.4811320E+04
 1.4202764E+00  5.3722547E+04
 1.4602841E+00  5.2783699E+04
 1.5002919E+00  5.1859141E+04
 1.5402998E+00  5.1081285E+04
 1.5803075E+00  5.0312781E+04
 1.6203153E+00  4.9673586E+04
 1.6603230E+00  4.9245406E+04
 1.7003309E+00  4.9124254E+04
 1.7403387E+00  4.9434004E+04
 1.7803464E+00  4.9738504E+04
 1.8203542E+00  4.9400578E+04
 1.8603621E+00  4.8385996E+04
 1.9003698E+00  4.7326012E+04
 1.9403776E+00  4.6883355E+04
 1.9803853E+00  4.6947824E+04
 2.0203931E+00  4.7276832E+04
 2.0604010E+00  4.7513926E+04
 2.1004088E+00  4.7485559E+04
 2.1404164E+00  4.7221070E+04
 2.1804242E+00  4.6960801E+04
 2.2204320E+00  4.6970000E+04
 2.2604399E+00  4.7100551E+04
 2.3004477E+00  4.7194070E+04
 2.3404555E+00  4.7436086E+04
 2.3804631E+00  4.7649809E+04
 2.4204710E+00  4.7842977E+04
 2.4604788E+00  4.8105945E+04
 2.5004866E+00  4.8501668E+04
 2.5404944E+00  4.9023844E+04
 2.5805020E+00  4.9358797E+04
 2.6205099E+00  4.9497617E+04
 2.6605177E+00  4.9269984E+04
 2.7005255E+00  4.8567809E+04
 2.7405334E+00  4.7720328E+04
 2.7805409E+00  4.6848246E+04
 2.8205488E+00  4.6068844E+04
 2.8605566E+00  4.5502609E+04
 2.9005644E+00  4.5086270E+04
 2.9405723E+00  4.4507750E+04
 2.9805801E+00  4.3585336E+04
 3.0205877E+00  4.2527508E+04
 3.0605955E+00  4.1654910E+04
 3.1006033E+00  4.1009598E+04
 3.1406112E+00  4.0502547E+04
 3.1806190E+00  4.0054859E+04
 3.2206266E+00  3.9728414E+04
 3.2606344E+00  3.9510922E+04
 3.3006423E+00  3.9368098E+04
 3.3406501E+00  3.9480609E+04
 3.3806579E+00  3.9805434E+04
 3.4206655E+00  4.0134605E+04
 3.4606733E+00  4.0250145E+04
 3.5006812E+00  4.0113090E+04
 3.5406890E+00  3.9982336E+04
 3.5806968E+00  3.9998453E+04
 3.6207047E+00  4.0038770E+04
 3.6607122E+00  4.0004996E+04
 3.7007201E+00  3.9899391E+04
 3.7407279E+00  3.9804992E+04
 3.7807357E+00  3.9612293E+04
 3.8207436E+00  3.9377148E+04
 3.8607512E+00  3.9193855E+04
 3.9007590E+00  3.9075461E+04
 3.9407668E+00  3.9002711E+04
 3.9807746E+00  3.8956047E+04
 4.0207825E+00  3.9043324E+04
 4.0607901E+00  3.9280234E+04
 4.1007981E+00  3.9571906E+04
 4.1408057E+00  3.9855059E+04
 4.1808133E+00  4.0158898E+04
 4.2208214E+00  4.0557168E+04
 4.2608290E+00  4.1061488E+04
 4.3008370E+00  4.1619625E+04
 4.3408446E+00  4.2307547E+04
 4.3808522E+00  4.3150191E+04
 4.4208603E+00  4.4209836E+04
 4.4608679E+00  4.5524941E+04
 4.5008759E+00  4.7041531E+04
 4.5408835E+00  4.8716500E+04
 4.5808916E+00  5.0659848E+04
 4.6208992E+00  5.2895188E+04
 4.6609068E+00  5.5492914E+04
 4.7009149E+00  5.8566426E+04
 4.7409225E+00  6.2241371E+04
 4.7809305E+00  6.6734938E+04
 4.8209381E+00  7.2298227E+04
 4.8609457E+00  7.9199508E+04
 4.9009538E+00  8.8005117E+04
 4.9409614E+00  9.9385242E+04
 4.9809694E+00  1.1405277E+05
 5.0209770E+00  1.3412755E+05
 5.0609846E+00  1.6213345E+05
 5.1009927E+00  2.0204819E+05
 5.1410003E+00  2.6586475E+05
 5.1810083E+00  3.7764012E+05
 5.2210159E+00  5.9799900E+05
 5.2610235E+00  1.0823272E+06
 5.3010316E+00  1.9974034E+06
 5.3410392E+00  3.1333572E+06
 5.3810472E+00  3.6715378E+06
 5.4210548E+00  3.6746120E+06
 5.4610624E+00  3.1195255E+06
 5.5010705E+00  1.9867372E+06
 5.5410781E+00  1.0403474E+06
 5.5810862E+00  5.5823831E+05
 5.6210938E+00  3.4489588E+05
 5.6611013E+00  2.4374392E+05
 5.7011094E+00  1.9403569E+05
 5.7411170E+00  1.6801088E+05
 5.7811251E+00  1.5498572E+05
 5.8211327E+00  1.5115739E+05
 5.8611407E+00  1.5453828E+05
 5.9011483E+00  1.6616033E+05
 5.9411559E+00  1.8862008E+05
 5.9811640E+00  2.2869528E+05
 6.0211716E+00  3.0293691E+05
 6.0611796E+00  4.4224344E+05
 6.1011872E+00  7.0974794E+05
 6.1411948E+00  1.1575245E+06
 6.1812029E+00  1.6915568E+06
 6.2212105E+00  2.0472969E+06
 6.2612185E+00  1.9518268E+06
 6.3012261E+00  1.4758019E+06
 6.3412337E+00  9.1621938E+05
 6.3812418E+00  5.2317194E+05
 6.4212494E+00  3.0226972E+05
 6.4612575E+00  1.9212842E+05
 6.5012650E+00  1.3504277E+05
 6.5412726E+00  1.0306239E+05
 6.5812807E+00  8.4158539E+04
 6.6212883E+00  7.1877891E+04
 6.6612964E+00  6.3433051E+04
 6.7013040E+00  5.7477363E+04
 6.7413116E+00  5.2985230E+04
 6.7813196E+00  4.9549684E+04
 6.8213272E+00  4.6869102E+04
 6.8613353E+00  4.4654215E+04
 6.9013429E+00  4.2769570E+04
 6.9413505E+00  4.1135504E+04
 6.9813585E+00  3.9644277E+04
 7.0213661E+00  3.8439250E+04
 7.0613742E+00  3.7488695E+04
 7.1013818E+00  3.6641480E+04
 7.1413898E+00  3.5919941E+04
 7.1813974E+00  3.5310676E+04
 7.2214050E+00  3.4782988E+04
 7.2614131E+00  3.4346176E+04
 7.3014207E+00  3.4001035E+04
 7.3414288E+00  3.3751934E+04
 7.3814363E+00  3.3570609E+04
 7.4214439E+00  3.3441496E+04
 7.4614520E+00  3.3358160E+04
 7.5014596E+00  3.3277273E+04
 7.5414677E+00  3.3215402E+04
 7.5814753E+00  3.3212750E+04
 7.6214828E+00  3.3267137E+04
 7.6614909E+00  3.3418691E+04
 7.7014985E+00  3.3690801E+04
 7.7415066E+00  3.4007562E+04
 7.7815142E+00  3.4347074E+04
 7.8215218E+00  3.4781629E+04
 7.8615298E+00  3.5281035E+04
 7.9015374E+00  3.5890918E+04
 7.9415455E+00  3.6637457E+04
 7.9815531E+00  3.7535848E+04
 8.0215607E+00  3.8531219E+04
 8.0615683E+00  3.9661379E+04
 8.1015768E+00  4.1040000E+04
 8.1415844E+00  4.2674465E+04
 8.1815920E+00  4.4654027E+04
 8.2215996E+00  4.7067602E+04
 8.2616072E+00  5.0035840E+04
 8.3016157E+00  5.3753930E+04
 8.3416233E+00  5.8437414E+04
 8.3816309E+00  6.4542594E+04
 8.4216385E+00  7.2683719E+04
 8.4616461E+00  8.3716875E+04
 8.5016546E+00  9.9319062E+04
 8.5416622E+00  1.2283755E+05
 8.5816698E+00  1.6037206E+05
 8.6216774E+00  2.2611814E+05
 8.6616850E+00  3.4949119E+05
 8.7016935E+00  5.7228050E+05
 8.7417011E+00  9.2280469E+05
 8.7817087E+00  1.3004896E+06
 8.8217163E+00  1.5041328E+06
 8.8617239E+00  1.3833252E+06
 8.9017324E+00  1.0317416E+06
 8.9417400E+00  6.5407475E+05
 8.9817476E+00  3.8854384E+05
 9.0217552E+00  2.3852650E+05
 9.0617638E+00  1.5907131E+05
 9.1017714E+00  1.1725238E+05
 9.1417789E+00  9.3860477E+04
 9.1817865E+00  7.9732727E+04
 9.2217941E+00  7.0948375E+04
 9.2618027E+00  6.5156914E+04
 9.3018103E+00  6.1232266E+04
 9.3418179E+00  5.8657863E+04
 9.3818254E+00  5.6936840E+04
 9.4218330E+00  5.5876570E+04
 9.4618416E+00  5.5424668E+04
 9.5018492E+00  5.5383836E+04
 9.5418568E+00  5.5770184E+04
 9.5818644E+00  5.6579996E+04
 9.6218719E+00  5.7830793E+04
 9.6618805E+00  5.9629965E+04
 9.7018881E+00  6.2016523E+04
 9.7418957E+00  6.5143145E+04
 9.7819033E+00  6.9144227E+04
 9.8219109E+00  7.4279203E+04
 9.8619194E+00  8.0936922E+04
 9.9019270E+00  8.9494117E+04
 9.9419346E+00  1.0107436E+05
 9.9819422E+00  1.1699880E+05
 1.0021950E+01  1.3921686E+05
 1.0061958E+01  1.7209725E+05
 1.0101966E+01  2.2396223E+05
 1.0141973E+01  3.1018109E+05
 1.0181981E+01  4.6196500E+05
 1.0221989E+01  7.2382350E+05
 1.0261997E+01  1.1074804E+06
 1.0302005E+01  1.5245626E+06
 1.0342012E+01  1.7546404E+06
 1.0382020E+01  1.6556358E+06
 1.0422028E+01  1.2857119E+06
 1.0462036E+01  8.6798944E+05
 1.0502044E+01  5.5132162E+05
 1.0542051E+01  3.6415306E+05
 1.0582059E+01  2.7112559E+05
 1.0622066E+01  2.3908870E+05
 1.0662075E+01  2.5795320E+05
 1.0702083E+01  3.2890588E+05
 1.0742090E+01  4.4315403E+05
 1.0782098E+01  5.4811944E+05
 1.0822105E+01  5.7198531E+05
 1.0862114E+01  4.8985722E+05
 1.0902122E+01  3.5347656E+05
 1.0942129E+01  2.3084780E+05
 1.0982137E+01  1.5001617E+05
 1.1022144E+01  1.0499205E+05
 1.1062153E+01  8.0317344E+04
 1.1102160E+01  6.6303688E+04
 1.1142168E+01  5.7766641E+04
 1.1182176E+01  5.2096957E+04
 1.1222183E+01  4.8128770E+04
 1.1262192E+01  4.5230555E+04
 1.1302199E+01  4.2973512E+04
 1.1342207E+01  4.1222988E+04
 1.1382215E+01  3.9845227E+04
 1.1422222E+01  3.8731195E+04
 1.1462231E+01  3.7813738E+04
 1.1502238E+01  3.7045035E+04
 1.1542246E+01  3.6361207E+04
 1.1582253E+01  3.5770430E+04
 1.1622262E+01  3.5319863E+04
 1.1662270E+01  3.4958496E+04
 1.1702277E+01  3.4695895E+04
 1.1742285E+01  3.4561160E+04
 1.1782292E+01  3.4571145E+04
 1.1822301E+01  3.4720059E+04
 1.1862309E+01  3.5006504E+04
 1.1902316E+01  3.5455316E+04
 1.1942324E+01  3.6217582E+04
 1.1982331E+01  3.7455562E+04
 1.2022340E+01  3.9477953E+04
 1.2062347E+01  4.0868258E+04
 1.2102355E+01  4.2614934E+04
 1.2142363E+01  4.5324797E+04
 1.2182370E+01  4.9821527E+04
 1.2222379E+01  5.6447270E+04
 1.2262386E+01  6.6667625E+04
 1.2302394E+01  8.2775555E+04
 1.2342402E+01  1.0823979E+05
 1.2382409E+01  1.4490923E+05
 1.2422418E+01  1.8726297E+05
 1.2462425E+01  2.1973769E+05
 1.2502433E+01  2.2439245E+05
 1.2542440E+01  1.9873852E+05
 1.2582448E+01  1.5685338E+05
 1.2622457E+01  1.1712237E+05
 1.2662464E+01  8.8303461E+04
 1.2702472E+01  6.9992242E+04
 1.2742479E+01  5.9172879E+04
 1.2782487E+01  5.2953422E+04
 1.2822495E+01  4.9458375E+04
 1.2862503E+01  4.7681844E+04
 1.2902511E+01  4.7046238E+04
 1.2942518E+01  4.7202965E+04
 1.2982526E+01  4.8037000E+04
 1.3022534E+01  4.9510707E+04
 1.3062542E+01  5.1628648E+04
 1.3102550E+01  5.4504211E+04
 1.3142557E+01  5.8281090E+04
 1.3182565E+01  6.3238402E+04
 1.3222573E+01  6.9781727E+04
 1.3262581E+01  7.8592312E+04
 1.3302588E+01  9.0834570E+04
 1.3342596E+01  1.0844000E+05
 1.3382604E+01  1.3532192E+05
 1.3422612E+01  1.7864194E+05
 1.3462620E+01  2.5028458E+05
 1.3502627E+01  3.6270284E+05
 1.3542635E+01  5.1098003E+05
 1.3582643E+01  6.4909062E+05
 1.3622651E+01  7.1013662E+05
 1.3662659E+01  6.6231469E+05
 1.3702666E+01  5.4612925E+05
 1.3742674E+01  4.3089716E+05
 1.3782681E+01  3.6516106E+05
 1.3822690E+01  3.6420325E+05
 1.3862698E+01  4.2455512E+05
 1.3902705E+01  5.2288894E+05
 1.3942713E+01  6.0696712E+05
 1.3982720E+01  6.1991781E+05
 1.4022729E+01  5.4523519E+05
 1.4062737E+01  4.2164716E+05
 1.4102744E+01  2.9991791E+05
 1.4142752E+01  2.0881481E+05
 1.4182760E+01  1.4931256E+05
 1.4222768E+01  1.1249368E+05
 1.4262775E+01  8.9926328E+04
 1.4302783E+01  7.5723594E+04
 1.4342791E+01  6.6446469E+04
 1.4382799E+01  6.0195090E+04
 1.4422807E+01  5.5861332E+04
 1.4462814E+01  5.2793734E+04
 1.4502822E+01  5.0578746E+04
 1.4542830E+01  4.9035781E+04
 1.4582838E+01  4.8030402E+04
 1.4622846E+01  4.7470035E+04
 1.4662853E+01  4.7335098E+04
 1.4702861E+01  4.7621168E+04
 1.4742868E+01  4.8304133E+04
 1.4782877E+01  4.9503879E+04
 1.4822885E+01  5.1275785E+04
 1.4862892E+01  5.3774672E+04
 1.4902900E+01  5.7304375E+04
 1.4942907E+01  6.2226156E+04
 1.4982916E+01  6.9104023E+04
 1.5022923E+01  7.9002352E+04
 1.5062931E+01  9.3807828E+04
 1.5102939E+01  1.1701085E+05
 1.5142946E+01  1.5414147E+05
 1.5182955E+01  2.1224662E+05
 1.5222962E+01  2.9142684E+05
 1.5262970E+01  3.7363600E+05
 1.5302978E+01  4.2306581E+05
 1.5342985E+01  4.1195869E+05
 1.5382994E+01  3.4747397E+05
 1.5423001E+01  2.6312600E+05
 1.5463009E+01  1.8942994E+05
 1.5503016E+01  1.3744617E+05
 1.5543024E+01  1.0449748E+05
 1.5583033E+01  8.4608609E+04
 1.5623040E+01  7.2846562E+04
 1.5663048E+01  6.6082078E+04
 1.5703055E+01  6.2497426E+04
 1.5743063E+01  6.1135930E+04
 1.5783072E+01  6.1557266E+04
 1.5823079E+01  6.3690473E+04
 1.5863087E+01  6.7720562E+04
 1.5903094E+01  7.4076570E+04
 1.5943102E+01  8.3642125E+04
 1.5983110E+01  9.8017055E+04
 1.6023117E+01  1.2001048E+05
 1.6063126E+01  1.5420175E+05
 1.6103134E+01  2.0604008E+05
 1.6143141E+01  2.7752184E+05
 1.6183149E+01  3.5710238E+05
 1.6223156E+01  4.1555334E+05
 1.6263165E+01  4.2303994E+05
 1.6303173E+01  3.7481931E+05
 1.6343180E+01  2.9580847E+05
 1.6383188E+01  2.1754580E+05
 1.6423195E+01  1.5673680E+05
 1.6463203E+01  1.1532001E+05
 1.6503212E+01  8.8593836E+04
 1.6543219E+01  7.1468367E+04
 1.6583227E+01  6.0341992E+04
 1.6623234E+01  5.2896922E+04
 1.6663242E+01  4.7776336E+04
 1.6703251E+01  4.4128820E+04
 1.6743258E+01  4.1504086E+04
 1.6783266E+01  3.9561820E+04
 1.6823273E+01  3.8109055E+04
 1.6863281E+01  3.7028055E+04
 1.6903290E+01  3.6230555E+04
 1.6943296E+01  3.5669223E+04
 1.6983305E+01  3.5316184E+04
 1.7023312E+01  3.5133875E+04
 1.7063320E+01  3.5086352E+04
 1.7103329E+01  3.5224207E+04
 1.7143335E+01  3.5537664E+04
 1.7183344E+01  3.6026871E+04
 1.7223351E+01  3.6770301E+04
 1.7263359E+01  3.7787461E+04
 1.7303368E+01  3.9194766E+04
 1.7343374E+01  4.1099355E+04
 1.7383383E+01  4.3687867E+04
 1.7423389E+01  4.7312766E+04
 1.7463398E+01  5.2617285E+04
 1.7503407E+01  6.0671195E+04
 1.7543413E+01  7.2887484E+04
 1.7583422E+01  9.0434625E+04
 1.7623428E+01  1.1206254E+05
 1.7663437E+01  1.3186278E+05
 1.7703445E+01  1.4150378E+05
 1.7743452E+01  1.3644158E+05
 1.7783461E+01  1.2005352E+05
 1.7823467E+01  1.0023653E+05
 1.7863476E+01  8.3334055E+04
 1.7903484E+01  7.1589836E+04
 1.7943491E+01  6.4572688E+04
 1.7983500E+01  6.1181887E+04
 1.8023508E+01  6.0474266E+04
 1.8063515E+01  6.1939797E+04
 1.8103523E+01  6.5244453E+04
 1.8143530E+01  7.0555695E+04
 1.8183538E+01  7.8336047E+04
 1.8223547E+01  8.9508516E+04
 1.8263554E+01  1.0575433E+05
 1.8303562E+01  1.2994410E+05
 1.8343569E+01  1.6633317E+05
 1.8383577E+01  2.1935392E+05
 1.8423586E+01  2.8863819E+05
 1.8463593E+01  3.6105466E+05
 1.8503601E+01  4.1192988E+05
 1.8543608E+01  4.2119172E+05
 1.8583616E+01  3.9202634E+05
 1.8623625E+01  3.4866900E+05
 1.8663631E+01  3.1674266E+05
 1.8703640E+01  3.0584147E+05
 1.8743647E+01  3.0634288E+05
 1.8783655E+01  2.9928516E+05
 1.8823664E+01  2.7230656E+05
 1.8863670E+01  2.2841759E+05
 1.8903679E+01  1.8053770E+05
 1.8943686E+01  1.3957364E+05
 1.8983694E+01  1.0927677E+05
 1.9023703E+01  8.8420266E+04
 1.9063709E+01  7.4492320E+04
 1.9103718E+01  6.5235711E+04
 1.9143724E+01  5.9009570E+04
 1.9183733E+01  5.4797172E+04
 1.9223742E+01  5.1971676E+04
 1.9263748E+01  5.0145086E+04
 1.9303757E+01  4.9139176E+04
 1.9343763E+01  4.8879078E+04
 1.9383772E+01  4.9315414E+04
 1.9423780E+01  5.0529863E+04
 1.9463787E+01  5.2706656E+04
 1.9503796E+01  5.6105137E+04
 1.9543802E+01  6.1238973E+04
 1.9583811E+01  6.8910242E+04
 1.9623819E+01  8.0138086E+04
 1.9663826E+01  9.5819789E+04
 1.9703835E+01  1.1561905E+05
 1.9743841E+01  1.3616956E+05
 1.9783850E+01  1.5076984E+05
 1.9823858E+01  1.5327600E+05
 1.9863865E+01  1.4246720E+05
 1.9903873E+01  1.2332765E+05
 1.9943880E+01  1.0271330E+05
 1.9983889E+01  8.5218359E+04
 2.0023897E+01  7.2418719E+04
 2.0063904E+01  6.3849949E+04
 2.0103912E+01  5.8574668E+04
 2.0143919E+01  5.5871082E+04
 2.0183928E+01  5.5171145E+04
 2.0223936E+01  5.6234590E+04
 2.0263943E+01  5.9157375E+04
 2.0303951E+01  6.4365605E+04
 2.0343958E+01  7.2762664E+04
 2.0383966E+01  8.5666945E+04
 2.0423975E+01  1.0431331E+05
 2.0463982E+01  1.2755400E+05
 2.0503990E+01  1.5055308E+05
 2.0543997E+01  1.6620189E+05
 2.0584005E+01  1.7024955E+05
 2.0624014E+01  1.6572514E+05
 2.0664021E+01  1.5998544E+05
 2.0704029E+01  1.5802973E+05
 2.0744036E+01  1.5829180E+05
 2.0784044E+01  1.5491569E+05
 2.0824053E+01  1.4347589E+05
 2.0864059E+01  1.2490276E+05
 2.0904068E+01  1.0396513E+05
 2.0944075E+01  8.5057422E+04
 2.0984083E+01  7.0275609E+04
 2.1024092E+01  5.9548859E+04
 2.1064098E+01  5.2019594E+04
 2.1104107E+01  4.6834953E+04
 2.1144114E+01  4.3273121E+04
 2.1184122E+01  4.0812781E+04
 2.1224131E+01  3.9117824E+04
 2.1264137E+01  3.8010047E+04
 2.1304146E+01  3.7370855E+04
 2.1344152E+01  3.7153008E+04
 2.1384161E+01  3.7293445E+04
 2.1424170E+01  3.7793633E+04
 2.1464176E+01  3.8819781E+04
 2.1504185E+01  4.0557828E+04
 2.1544191E+01  4.3332266E+04
 2.1584200E+01  4.7428668E+04
 2.1624208E+01  5.2842828E+04
 2.1664215E+01  5.8716828E+04
 2.1704224E+01  6.3147977E+04
 2.1744230E+01  6.4389457E+04
 2.1784239E+01  6.2190562E+04
 2.1824247E+01  5.8046352E+04
 2.1864254E+01  5.3921566E+04
 2.1904263E+01  5.1047109E+04
 2.1944269E+01  4.9820539E+04
 2.1984278E+01  5.0221023E+04
 2.2024286E+01  5.2134969E+04
 2.2064293E+01  5.5562988E+04
 2.2104301E+01  6.0798953E+04
 2.2144308E+01  6.8394906E+04
 2.2184317E+01  7.9229062E+04
 2.2224325E+01  9.4475383E+04
 2.2264332E+01  1.1511158E+05
 2.2304340E+01  1.4033864E+05
 2.2344347E+01  1.6593727E+05
 2.2384356E+01  1.8490298E+05
 2.2424364E+01  1.9154600E+05
 2.2464371E+01  1.8624636E+05
 2.2504379E+01  1.7485694E+05
 2.2544386E+01  1.6342602E+05
 2.2584394E+01  1.5360527E+05
 2.2624403E+01  1.4306361E+05
 2.2664410E+01  1.2943963E+05
 2.2704418E+01  1.1298127E+05
 2.2744425E+01  9.6278203E+04
 2.2784433E+01  8.1716078E+04
 2.2824442E+01  7.0357758E+04
 2.2864449E+01  6.2151355E+04
 2.2904457E+01  5.6530227E+04
 2.2944464E+01  5.2878160E+04
 2.2984472E+01  5.0746617E+04
 2.3024481E+01  4.9780371E+04
 2.3064487E+01  4.9813992E+04
 2.3104496E+01  5.0819559E+04
 2.3144505E+01  5.2847922E+04
 2.3184511E+01  5.6145234E+04
 2.3224520E+01  6.1085773E+04
 2.3264526E+01  6.8395594E+04
 2.3304535E+01  7.9109859E+04
 2.3344543E+01  9.4170336E+04
 2.3384550E+01  1.1334165E+05
 2.3424559E+01  1.3370089E+05
 2.3464565E+01  1.4921695E+05
 2.3504574E+01  1.5393056E+05
 2.3544582E+01  1.4626997E+05
 2.3584589E+01  1.3017972E+05
 2.3624598E+01  1.1182943E+05
 2.3664604E+01  9.5968773E+04
 2.3704613E+01  8.4492523E+04
 2.3744621E+01  7.7473406E+04
 2.3784628E+01  7.4441945E+04
 2.3824636E+01  7.5047398E+04
 2.3864643E+01  7.9255188E+04
 2.3904652E+01  8.7556312E+04
 2.3944660E+01  1.0082155E+05
 2.3984667E+01  1.1962323E+05
 2.4024675E+01  1.4266489E+05
 2.4064682E+01  1.6513383E+05
 2.4104691E+01  1.7941575E+05
 2.4144699E+01  1.7941717E+05
 2.4184706E+01  1.6495566E+05
 2.4224714E+01  1.4164952E+05
 2.4264721E+01  1.1673234E+05
 2.4304729E+01  9.5074852E+04
 2.4344738E+01  7.8179055E+04
 2.4384745E+01  6.5640664E+04
 2.4424753E+01  5.6579234E+04
 2.4464760E+01  5.0101312E+04
 2.4504768E+01  4.5388625E+04
 2.4544777E+01  4.1945348E+04
 2.4584784E+01  3.9395301E+04
 2.4624792E+01  3.7517969E+04
 2.4664799E+01  3.6133258E+04
 2.4704807E+01  3.5117875E+04
 2.4744816E+01  3.4407441E+04
 2.4784822E+01  3.3965750E+04
 2.4824831E+01  3.3777512E+04
 2.4864838E+01  3.3862195E+04
 2.4904846E+01  3.4216422E+04
 2.4944855E+01  3.4906855E+04
 2.4984861E+01  3.5891695E+04
 2.5024870E+01  3.7141246E+04
 2.5064877E+01  3.8463066E+04
 2.5104885E+01  3.9541836E+04
 2.5144894E+01  4.0098836E+04
 2.5184900E+01  4.0040398E+04
 2.5224909E+01  3.9532230E+04
 2.5264915E+01  3.8986613E+04
 2.5304924E+01  3.8738137E+04
 2.5344933E+01  3.8965504E+04
 2.5384939E+01  3.9806336E+04
 2.5424948E+01  4.1324422E+04
 2.5464954E+01  4.3687465E+04
 2.5504963E+01  4.7132000E+04
 2.5544971E+01  5.1956891E+04
 2.5584978E+01  5.8449398E+04
 2.5624987E+01  6.6586492E+04
 2.5664993E+01  7.5802391E+04
 2.5705002E+01  8.4994391E+04
 2.5745010E+01  9.3059391E+04
 2.5785017E+01  9.9827852E+04
 2.5825026E+01  1.0573484E+05
 2.5865032E+01  1.1053651E+05
 2.5905041E+01  1.1257079E+05
 2.5945049E+01  1.0969223E+05
 2.5985056E+01  1.0150773E+05
 2.6025064E+01  9.0009086E+04
 2.6065071E+01  7.7862109E+04
 2.6105080E+01  6.7195852E+04
 2.6145088E+01  5.8842137E+04
 2.6185095E+01  5.2737195E+04
 2.6225103E+01  4.8493438E+04
 2.6265110E+01  4.5769484E+04
 2.6305119E+01  4.4223301E+04
 2.6345127E+01  4.3699562E+04
 2.6385134E+01  4.4091852E+04
 2.6425142E+01  4.5441285E+04
 2.6465149E+01  4.7880059E+04
 2.6505157E+01  5.1589434E+04
 2.6545166E+01  5.6685539E+04
 2.6585173E+01  6.2935465E+04
 2.6625181E+01  6.9353031E+04
 2.6665188E+01  7.4246867E+04
 2.6705196E+01  7.6035078E+04
 2.6745205E+01  7.4273156E+04
 2.6785212E+01  6.9919789E+04
 2.6825220E+01  6.4677781E+04
 2.6865227E+01  6.0057434E+04
 2.6905235E+01  5.6861418E+04
 2.6945244E+01  5.5392258E+04
 2.6985250E+01  5.5796586E+04
 2.7025259E+01  5.8195395E+04
 2.7065266E+01  6.2871098E+04
 2.7105274E+01  7.0090844E+04
 2.7145283E+01  7.9623312E+04
 2.7185289E+01  9.0241352E+04
 2.7225298E+01  9.9479500E+04
 2.7265305E+01  1.0482929E+05
 2.7305313E+01  1.0527016E+05
 2.7345322E+01  1.0179542E+05
 2.7385328E+01  9.6166820E+04
 2.7425337E+01  8.9499586E+04
 2.7465343E+01  8.2085992E+04
 2.7505352E+01  7.4050383E+04
 2.7545361E+01  6.5937820E+04
 2.7585367E+01  5.8585363E+04
 2.7625376E+01  5.2533691E+04
 2.7665382E+01  4.7903750E+04
 2.7705391E+01  4.4544293E+04
 2.7745399E+01  4.2215492E+04
 2.7785406E+01  4.0769434E+04
 2.7825415E+01  4.0035340E+04
 2.7865421E+01  3.9902918E+04
 2.7905430E+01  4.0427039E+04
 2.7945438E+01  4.1615238E+04
 2.7985445E+01  4.3537145E+04
 2.8025454E+01  4.6232008E+04
 2.8065460E+01  4.9502965E+04
 2.8105469E+01  5.2836848E+04
 2.8145477E+01  5.5425027E+04
 2.8185484E+01  5.6585918E+04
 2.8225492E+01  5.6205039E+04
 2.8265501E+01  5.4837898E+04
 2.8305508E+01  5.3352445E+04
 2.8345516E+01  5.2513152E+04
 2.8385523E+01  5.2785004E+04
 2.8425531E+01  5.4436406E+04
 2.8465540E+01  5.7734945E+04
 2.8505547E+01  6.2989270E+04
 2.8545555E+01  7.0407297E+04
 2.8585562E+01  7.9924852E+04
 2.8625570E+01  9.0657773E+04
 2.8665579E+01  1.0061800E+05
 2.8705585E+01  1.0765219E+05
 2.8745594E+01  1.1060482E+05
 2.8785601E+01  1.0979902E+05
 2.8825609E+01  1.0626238E+05
 2.8865618E+01  1.0068618E+05
 2.8905624E+01  9.3249703E+04
 2.8945633E+01  8.4280875E+04
 2.8985640E+01  7.4708438E+04
 2.9025648E+01  6.5666875E+04
 2.9065657E+01  5.7970215E+04
 2.9105663E+01  5.1867508E+04
 2.9145672E+01  4.7215590E+04
 2.9185678E+01  4.3806996E+04
 2.9225687E+01  4.1382770E+04
 2.9265696E+01  3.9827578E+04
 2.9305702E+01  3.9012719E+04
 2.9345711E+01  3.8935168E+04
 2.9385717E+01  3.9572605E+04
 2.9425726E+01  4.0989816E+04
 2.9465734E+01  4.3149660E+04
 2.9505741E+01  4.5645500E+04
 2.9545750E+01  4.7759297E+04
 2.9585756E+01  4.8752664E+04
 2.9625765E+01  4.8248578E+04
 2.9665773E+01  4.6587676E+04
 2.9705780E+01  4.4502652E+04
 2.9745789E+01  4.2695020E+04
 2.9785795E+01  4.1612781E+04
 2.9825804E+01  4.1420781E+04
 2.9865812E+01  4.2207508E+04
 2.9905819E+01  4.4008332E+04
 2.9945827E+01  4.6711855E+04
 2.9985834E+01  4.9923910E+04
 3.0025843E+01  5.2971180E+04
 3.0065851E+01  5.4918539E+04
 3.0105858E+01  5.5060078E+04
 3.0145866E+01  5.3234414E+04
 3.0185873E+01  4.9944457E+04
 3.0225882E+01  4.6009328E+04
 3.0265890E+01  4.2232355E+04
 3.0305897E+01  3.9001566E+04
 3.0345905E+01  3.6424020E+04
 3.0385912E+01  3.4462766E+04
 3.0425920E+01  3.3035168E+04
 3.0465929E+01  3.2055885E+04
 3.0505936E+01  3.1446781E+04
 3.0545944E+01  3.1181900E+04
 3.0585951E+01  3.1174527E+04
 3.0625959E+01  3.1473623E+04
 3.0665968E+01  3.2122115E+04
 3.0705975E+01  3.3131301E+04
 3.0745983E+01  3.4560453E+04
 3.0785990E+01  3.6459707E+04
 3.0825998E+01  3.8705660E+04
 3.0866007E+01  4.0998098E+04
 3.0906013E+01  4.2865500E+04
 3.0946022E+01  4.3883562E+04
 3.0986029E+01  4.3997387E+04
 3.1026037E+01  4.3535070E+04
 3.1066046E+01  4.3075035E+04
 3.1106052E+01  4.3069770E+04
 3.1146061E+01  4.3843121E+04
 3.1186068E+01  4.5670402E+04
 3.1226076E+01  4.8707242E+04
 3.1266085E+01  5.3046043E+04
 3.1306091E+01  5.8564723E+04
 3.1346100E+01  6.4651008E+04
 3.1386106E+01  7.0105727E+04
 3.1426115E+01  7.3594750E+04
 3.1466124E+01  7.4461172E+04
 3.1506130E+01  7.2878234E+04
 3.1546139E+01  6.9600586E+04
 3.1586145E+01  6.5379605E+04
 3.1626154E+01  6.0739727E+04
 3.1666162E+01  5.6044141E+04
 3.1706169E+01  5.1696195E+04
 3.1746178E+01  4.8007922E+04
 3.1786184E+01  4.5145949E+04
 3.1826193E+01  4.3179832E+04
 3.1866201E+01  4.2070051E+04
 3.1906208E+01  4.1761812E+04
 3.1946217E+01  4.2213062E+04
 3.1986223E+01  4.3496156E+04
 3.2026234E+01  4.5714020E+04
 3.2066238E+01  4.8871414E+04
 3.2106247E+01  5.2782258E+04
 3.2146255E+01  5.6994148E+04
 3.2186264E+01  6.0589367E+04
 3.2226273E+01  6.2656336E+04
 3.2266277E+01  6.2613285E+04
 3.2306286E+01  6.0710938E+04
 3.2346294E+01  5.7856043E+04
 3.2386303E+01  5.5015012E+04
 3.2426311E+01  5.2915410E+04
 3.2466316E+01  5.1972277E+04
 3.2506325E+01  5.2397758E+04
 3.2546333E+01  5.4205164E+04
 3.2586342E+01  5.7208395E+04
 3.2626350E+01  6.0833613E+04
 3.2666355E+01  6.4183289E+04
 3.2706364E+01  6.6250070E+04
 3.2746372E+01  6.6461516E+04
 3.2786381E+01  6.4858555E+04
 3.2826389E+01  6.1830973E+04
 3.2866394E+01  5.7952297E+04
 3.2906403E+01  5.3590078E+04
 3.2946411E+01  4.9176828E+04
 3.2986420E+01  4.5020836E+04
 3.3026428E+01  4.1345535E+04
 3.3066433E+01  3.8299031E+04
 3.3106441E+01  3.5874332E+04
 3.3146450E+01  3.3995234E+04
 3.3186459E+01  3.2539316E+04
 3.3226467E+01  3.1428361E+04
 3.3266472E+01  3.0596107E+04
 3.3306480E+01  3.0032885E+04
 3.3346489E+01  2.9665895E+04
 3.3386497E+01  2.9463191E+04
 3.3426506E+01  2.9429934E+04
 3.3466511E+01  2.9556377E+04
 3.3506519E+01  2.9873768E+04
 3.3546528E+01  3.0413838E+04
 3.3586536E+01  3.1130771E+04
 3.3626545E+01  3.2100551E+04
 3.3666550E+01  3.3423375E+04
 3.3706558E+01  3.5158016E+04
 3.3746567E+01  3.7445012E+04
 3.3786575E+01  4.0321602E+04
 3.3826584E+01  4.3754938E+04
 3.3866589E+01  4.7652105E+04
 3.3906597E+01  5.1622418E+04
 3.3946606E+01  5.5236938E+04
 3.3986614E+01  5.8097832E+04
 3.4026623E+01  5.9904508E+04
 3.4066628E+01  6.0356473E+04
 3.4106636E+01  5.9211637E+04
 3.4146645E+01  5.6546238E+04
 3.4186653E+01  5.2833180E+04
 3.4226662E+01  4.8763359E+04
 3.4266666E+01  4.4985512E+04
 3.4306675E+01  4.1821117E+04
 3.4346684E+01  3.9402695E+04
 3.4386692E+01  3.7721859E+04
 3.4426701E+01  3.6727441E+04
 3.4466705E+01  3.6358184E+04
 3.4506714E+01  3.6615766E+04
 3.4546722E+01  3.7341512E+04
 3.4586731E+01  3.8408809E+04
 3.4626740E+01  3.9586328E+04
 3.4666744E+01  4.0473477E+04
 3.4706753E+01  4.0746789E+04
 3.4746761E+01  4.0286301E+04
 3.4786770E+01  3.9282816E+04
 3.4826778E+01  3.8052164E+04
 3.4866783E+01  3.6958586E+04
 3.4906792E+01  3.6199668E+04
 3.4946800E+01  3.5958188E+04
 3.4986809E+01  3.6236680E+04
 3.5026817E+01  3.6927891E+04
 3.5066822E+01  3.7751805E+04
 3.5106831E+01  3.8411000E+04
 3.5146839E+01  3.8512254E+04
 3.5186848E+01  3.7884297E+04
 3.5226856E+01  3.6570254E+04
 3.5266861E+01  3.4864801E+04
 3.5306870E+01  3.3143730E+04
 3.5346878E+01  3.1583240E+04
 3.5386887E+01  3.0302139E+04
 3.5426895E+01  2.9306883E+04
 3.5466900E+01  2.8600684E+04
 3.5506908E+01  2.8114510E+04
 3.5546917E+01  2.7829066E+04
 3.5586926E+01  2.7762500E+04
 3.5626934E+01  2.7868283E+04
 3.5666939E+01  2.8156164E+04
 3.5706947E+01  2.8626465E+04
 3.5746956E+01  2.9268197E+04
 3.5786964E+01  3.0080996E+04
 3.5826973E+01  3.0988150E+04
 3.5866978E+01  3.1930971E+04
 3.5906986E+01  3.2894797E+04
 3.5946995E+01  3.3883141E+04
 3.5987003E+01  3.5028562E+04
 3.6027012E+01  3.6446520E+04
 3.6067017E+01  3.8369312E+04
 3.6107025E+01  4.0922230E+04
 3.6147034E+01  4.4127078E+04
 3.6187042E+01  4.7864344E+04
 3.6227051E+01  5.1939402E+04
 3.6267056E+01  5.5663664E+04
 3.6307064E+01  5.8355652E+04
 3.6347073E+01  5.9567043E+04
 3.6387081E+01  5.9164062E+04
 3.6427090E+01  5.7355574E+04
 3.6467094E+01  5.4618680E+04
 3.6507103E+01  5.1308758E+04
 3.6547112E+01  4.7815191E+04
 3.6587120E+01  4.4522910E+04
 3.6627129E+01  4.1670289E+04
 3.6667133E+01  3.9388312E+04
 3.6707142E+01  3.7681492E+04
 3.6747150E+01  3.6515141E+04
 3.6787159E+01  3.5909809E+04
 3.6827168E+01  3.5817160E+04
 3.6867172E+01  3.6177648E+04
 3.6907181E+01  3.6955461E+04
 3.6947189E+01  3.7892648E+04
 3.6987198E+01  3.8811996E+04
 3.7027206E+01  3.9380625E+04
 3.7067211E+01  3.9470543E+04
 3.7107220E+01  3.9159617E+04
 3.7147228E+01  3.8716582E+04
 3.7187237E+01  3.8430473E+04
 3.7227245E+01  3.8502406E+04
 3.7267250E+01  3.9112285E+04
 3.7307259E+01  4.0265188E+04
 3.7347267E+01  4.1857730E+04
 3.7387276E+01  4.3655105E+04
 3.7427284E+01  4.5229184E+04
 3.7467289E+01  4.6243707E+04
 3.7507298E+01  4.6468863E+04
 3.7547306E+01  4.5820355E+04
 3.7587315E+01  4.4495938E+04
 3.7627323E+01  4.2649227E+04
 3.7667328E+01  4.0467672E+04
 3.7707336E+01  3.8230238E+04
 3.7747345E+01  3.6136367E+04
 3.7787354E+01  3.4384406E+04
 3.7827362E+01  3.2988863E+04
 3.7867367E+01  3.1953250E+04
 3.7907375E+01  3.1279682E+04
 3.7947384E+01  3.0938707E+04
 3.7987392E+01  3.0912455E+04
 3.8027401E+01  3.1165656E+04
 3.8067406E+01  3.1499408E+04
 3.8107414E+01  3.1861836E+04
 3.8147423E+01  3.2101736E+04
 3.8187431E+01  3.2160766E+04
 3.8227440E+01  3.2023689E+04
 3.8267445E+01  3.1874477E+04
 3.8307453E+01  3.1863166E+04
 3.8347462E+01  3.2098941E+04
 3.8387470E+01  3.2618027E+04
 3.8427479E+01  3.3381387E+04
 3.8467484E+01  3.4289980E+04
 3.8507492E+01  3.5190734E+04
 3.8547501E+01  3.5815059E+04
 3.8587509E+01  3.5976980E+04
 3.8627518E+01  3.5694582E+04
 3.8667522E+01  3.5018781E+04
 3.8707531E+01  3.4114875E+04
 3.8747540E+01  3.3226031E+04
 3.8787548E+01  3.2132986E+04
 3.8827557E+01  3.1317531E+04
 3.8867561E+01  3.0722580E+04
 3.8907570E+01  3.0377936E+04
 3.8947578E+01  3.0309998E+04
 3.8987587E+01  3.0543871E+04
 3.9027596E+01  3.1090902E+04
 3.9067600E+01  3.1938980E+04
 3.9107609E+01  3.3025773E+04
 3.9147617E+01  3.4214488E+04
 3.9187626E+01  3.5282754E+04
 3.9227634E+01  3.6015059E+04
 3.9267639E+01  3.6297137E+04
 3.9307648E+01  3.6150934E+04
 3.9347656E+01  3.5772074E+04
 3.9387665E+01  3.5432516E+04
 3.9427673E+01  3.5336855E+04
 3.9467678E+01  3.5677461E+04
 3.9507687E+01  3.6360699E+04
 3.9547695E+01  3.7245965E+04
 3.9587704E+01  3.8027348E+04
 3.9627712E+01  3.8366266E+04
 3.9667717E+01  3.7983840E+04
 3.9707726E+01  3.6927762E+04
 3.9747734E+01  3.5382844E+04
 3.9787743E+01  3.3642754E+04
 3.9827751E+01  3.1975672E+04
 3.9867756E+01  3.0512938E+04
 3.9907764E+01  2.9302738E+04
 3.9947773E+01  2.8392262E+04
 3.9987782E+01  2.7687869E+04
 4.0027790E+01  2.7172873E+04
 4.0067795E+01  2.6936299E+04
 4.0107803E+01  2.6794088E+04
 4.0147812E+01  2.6887129E+04
 4.0187820E+01  2.7012025E+04
 4.0227829E+01  2.7239295E+04
 4.0267834E+01  2.7480221E+04
 4.0307842E+01  2.7679982E+04
 4.0347851E+01  2.7829197E+04
 4.0387859E+01  2.7974791E+04
 4.0427868E+01  2.8179074E+04
 4.0467873E+01  2.8521141E+04
 4.0507881E+01  2.9021887E+04
 4.0547890E+01  2.9755201E+04
 4.0587898E+01  3.0746699E+04
 4.0627907E+01  3.1949402E+04
 4.0667912E+01  3.3331676E+04
 4.0707920E+01  3.4723852E+04
 4.0747929E+01  3.5909906E+04
 4.0787937E+01  3.6703008E+04
 4.0827946E+01  3.6947055E+04
 4.0867950E+01  3.6560707E+04
 4.0907959E+01  3.5677238E+04
 4.0947968E+01  3.4539371E+04
 4.0987976E+01  3.3331371E+04
 4.1027985E+01  3.2257678E+04
 4.1067993E+01  3.1414791E+04
 4.1107998E+01  3.0925279E+04
 4.1148006E+01  3.0717863E+04
 4.1188015E+01  3.0788891E+04
 4.1228024E+01  3.1092441E+04
 4.1268032E+01  3.1558014E+04
 4.1308037E+01  3.2091965E+04
 4.1348045E+01  3.2542881E+04
 4.1388054E+01  3.2859770E+04
 4.1428062E+01  3.3067871E+04
 4.1468071E+01  3.3282707E+04
 4.1508076E+01  3.3644723E+04
 4.1548084E+01  3.4254082E+04
 4.1588093E+01  3.5147883E+04
 4.1628101E+01  3.6189012E+04
 4.1668110E+01  3.7261316E+04
 4.1708115E+01  3.8091418E+04
 4.1748123E+01  3.8416422E+04
 4.1788132E+01  3.8170273E+04
 4.1828140E+01  3.7363230E+04
 4.1868149E+01  3.6141035E+04
 4.1908154E+01  3.4700723E+04
 4.1948162E+01  3.3260285E+04
 4.1988171E+01  3.1961980E+04
 4.2028179E+01  3.0851287E+04
 4.2068188E+01  2.9944209E+04
 4.2108192E+01  2.9290375E+04
 4.2148201E+01  2.8823031E+04
 4.2188210E+01  2.8588510E+04
 4.2228218E+01  2.8520924E+04
 4.2268227E+01  2.8661893E+04
 4.2308231E+01  2.8850760E+04
 4.2348240E+01  2.9144699E+04
 4.2388248E+01  2.9490799E+04
 4.2428257E+01  2.9888119E+04
 4.2468266E+01  3.0385094E+04
 4.2508270E+01  3.1076131E+04
 4.2548279E+01  3.1981811E+04
 4.2588287E+01  3.3144098E+04
 4.2628296E+01  3.4506180E+04
 4.2668304E+01  3.5966105E+04
 4.2708309E+01  3.7330512E+04
 4.2748318E+01  3.8332996E+04
 4.2788326E+01  3.8825516E+04
 4.2828335E+01  3.8723840E+04
 4.2868343E+01  3.8035223E+04
 4.2908348E+01  3.6924664E+04
 4.2948357E+01  3.5479961E+04
 4.2988365E+01  3.3947988E+04
 4.3028374E+01  3.2442330E+04
 4.3068382E+01  3.1151467E+04
 4.3108387E+01  3.0105336E+04
 4.3148396E+01  2.9314807E+04
 4.3188404E+01  2.8753432E+04
 4.3228413E+01  2.8412836E+04
 4.3268421E+01  2.8239551E+04
 4.3308426E+01  2.8131459E+04
 4.3348434E+01  2.8026684E+04
 4.3388443E+01  2.7859953E+04
 4.3428452E+01  2.7559666E+04
 4.3468460E+01  2.7249602E+04
 4.3508465E+01  2.6929836E+04
 4.3548473E+01  2.6642000E+04
 4.3588482E+01  2.6495252E+04
 4.3628490E+01  2.6435355E+04
 4.3668499E+01  2.6388402E+04
 4.3708504E+01  2.6327680E+04
 4.3748512E+01  2.6184951E+04
 4.3788521E+01  2.5908793E+04
 4.3828529E+01  2.5498072E+04
 4.3868538E+01  2.5039533E+04
 4.3908543E+01  2.4547496E+04
 4.3948551E+01  2.4105117E+04
 4.3988560E+01  2.3733994E+04
 4.4028568E+01  2.3471439E+04
 4.4068577E+01  2.3252479E+04
 4.4108582E+01  2.3110166E+04
 4.4148590E+01  2.3093805E+04
 4.4188599E+01  2.3136709E+04
 4.4228607E+01  2.3279256E+04
 4.4268616E+01  2.3502230E+04
 4.4308620E+01  2.3791934E+04
 4.4348629E+01  2.4134301E+04
 4.4388638E+01  2.4501330E+04
 4.4428646E+01  2.4946092E+04
 4.4468655E+01  2.5488004E+04
 4.4508659E+01  2.6142062E+04
 4.4548668E+01  2.6964174E+04
 4.4588676E+01  2.7898516E+04
 4.4628685E+01  2.8913051E+04
 4.4668694E+01  2.9887965E+04
 4.4708698E+01  3.0696535E+04
 4.4748707E+01  3.1251562E+04
 4.4788715E+01  3.1435965E+04
 4.4828724E+01  3.1296479E+04
 4.4868732E+01  3.0891535E+04
 4.4908737E+01  3.0323418E+04
 4.4948746E+01  2.9674840E+04
 4.4988754E+01  2.9081777E+04
 4.5028763E+01  2.8594119E+04
 4.5068771E+01  2.8309301E+04
 4.5108776E+01  2.8186033E+04
 4.5148785E+01  2.8285680E+04
 4.5188793E+01  2.8563695E+04
 4.5228802E+01  2.8953863E+04
 4.5268810E+01  2.9407311E+04
 4.5308815E+01  2.9806318E+04
 4.5348824E+01  3.0047555E+04
 4.5388832E+01  3.0117779E+04
 4.5428841E+01  3.0055652E+04
 4.5468849E+01  3.0011064E+04
 4.5508854E+01  2.9999756E+04
 4.5548862E+01  3.0180555E+04
 4.5588871E+01  3.0513541E+04
 4.5628880E+01  3.0865742E+04
 4.5668888E+01  3.1087838E+04
 4.5708893E+01  3.1172191E+04
 4.5748901E+01  3.1008445E+04
 4.5788910E+01  3.0571242E+04
 4.5828918E+01  2.9950127E+04
 4.5868927E+01  2.9188027E+04
 4.5908932E+01  2.8383457E+04
 4.5948940E+01  2.7646012E+04
 4.5988949E+01  2.6978301E+04
 4.6028957E+01  2.6407311E+04
 4.6068966E+01  2.5983172E+04
 4.6108971E+01  2.5683879E+04
 4.6148979E+01  2.5516994E+04
 4.6188988E+01  2.5435232E+04
 4.6228996E+01  2.5476932E+04
 4.6269005E+01  2.5540682E+04
 4.6309010E+01  2.5633619E+04
 4.6349018E+01  2.5795941E+04
 4.6389027E+01  2.6023811E+04
 4.6429035E+01  2.6331490E+04
 4.6469044E+01  2.6776889E+04
 4.6509048E+01  2.7363143E+04
 4.6549057E+01  2.7999316E+04
 4.6589066E+01  2.8632520E+04
 4.6629074E+01  2.9196961E+04
 4.6669083E+01  2.9601246E+04
 4.6709087E+01  2.9758869E+04
 4.6749096E+01  2.9642287E+04
 4.6789104E+01  2.9350354E+04
 4.6829113E+01  2.8883607E+04
 4.6869122E+01  2.8401420E+04
 4.6909126E+01  2.7919170E+04
 4.6949135E+01  2.7576555E+04
 4.6989143E+01  2.7363045E+04
 4.7029152E+01  2.7290479E+04
 4.7069160E+01  2.7395238E+04
 4.7109165E+01  2.7559172E+04
 4.7149174E+01  2.7768320E+04
 4.7189182E+01  2.7968402E+04
 4.7229191E+01  2.8085793E+04
 4.7269199E+01  2.8056998E+04
 4.7309204E+01  2.7938928E+04
 4.7349213E+01  2.7756285E+04
 4.7389221E+01  2.7590854E+04
 4.7429230E+01  2.7531812E+04
 4.7469238E+01  2.7546953E+04
 4.7509243E+01  2.7520371E+04
 4.7549252E+01  2.7405293E+04
 4.7589260E+01  2.7242814E+04
 4.7629269E+01  2.6880334E+04
 4.7669277E+01  2.6413043E+04
 4.7709282E+01  2.5861182E+04
 4.7749290E+01  2.5334629E+04
 4.7789299E+01  2.4816566E+04
 4.7829308E+01  2.4387781E+04
 4.7869316E+01  2.4085902E+04
 4.7909321E+01  2.3894660E+04
 4.7949329E+01  2.3846045E+04
 4.7989338E+01  2.3863580E+04
 4.8029346E+01  2.3967006E+04
 4.8069355E+01  2.4140947E+04
 4.8109360E+01  2.4222062E+04
 4.8149368E+01  2.4394396E+04
 4.8189377E+01  2.4785529E+04
 4.8229385E+01  2.5057064E+04
 4.8269394E+01  2.5347994E+04
 4.8309399E+01  2.5687307E+04
 4.8349407E+01  2.6075895E+04
 4.8389416E+01  2.6545736E+04
 4.8429424E+01  2.6981439E+04
 4.8469433E+01  2.7261848E+04
 4.8509438E+01  2.7397258E+04
 4.8549446E+01  2.7123410E+04
 4.8589455E+01  2.6819326E+04
 4.8629463E+01  2.6320865E+04
 4.8669472E+01  2.5676535E+04
 4.8709476E+01  2.4999887E+04
 4.8749485E+01  2.4308012E+04
 4.8789494E+01  2.3596557E+04
 4.8829502E+01  2.3154256E+04
 4.8869511E+01  2.2863570E+04
 4.8909515E+01  2.2648492E+04
 4.8949524E+01  2.2428186E+04
 4.8989532E+01  2.2317684E+04
 4.9029541E+01  2.2174971E+04
 4.9069550E+01  2.2081969E+04
 4.9109554E+01  2.2130400E+04
 4.9149563E+01  2.2108777E+04
 4.9189571E+01  2.2155730E+04
 4.9229580E+01  2.2257947E+04
 4.9269588E+01  2.2409287E+04
 4.9309593E+01  2.2616420E+04
 4.9349602E+01  2.2755432E+04
 4.9389610E+01  2.2904023E+04
 4.9429619E+01  2.2972393E+04
 4.9469627E+01  2.2919432E+04
 4.9509632E+01  2.2754213E+04
 4.9549641E+01  2.2557291E+04
 4.9589649E+01  2.2319473E+04
 4.9629658E+01  2.2184578E+04
 4.9669666E+01  2.1959877E+04
 4.9709671E+01  2.1700424E+04
 4.9749680E+01  2.1492770E+04
 4.9789688E+01  2.1358107E+04
 4.9829697E+01  2.1203850E+04
 4.9869705E+01  2.1190582E+04
 4.9909710E+01  2.1272996E+04
 4.9949718E+01  2.1353973E+04
 4.9989727E+01  2.1578354E+04
 5.0029736E+01  2.1834592E+04
 5.0069744E+01  2.2146287E+04
 5.0109749E+01  2.2606307E+04
 5.0149757E+01  2.3101285E+04
 5.0189766E+01  2.3653848E+04
 5.0229774E+01  2.4218553E+04
 5.0269783E+01  2.4769670E+04
 5.0309788E+01  2.5164434E+04
 5.0349796E+01  2.5435535E+04
 5.0389805E+01  2.5565393E+04
 5.0429813E+01  2.5368602E+04
 5.0469822E+01  2.5236701E+04
 5.0509827E+01  2.4928291E+04
 5.0549835E+01  2.4665488E+04
 5.0589844E+01  2.4451189E+04
 5.0629852E+01  2.4363293E+04
 5.0669861E+01  2.4337451E+04
 5.0709866E+01  2.4425258E+04
 5.0749874E+01  2.4512129E+04
 5.0789883E+01  2.4752121E+04
 5.0829891E+01  2.4930904E+04
 5.0869900E+01  2.5060148E+04
 5.0909904E+01  2.5188818E+04
 5.0949913E+01  2.5273811E+04
 5.0989922E+01  2.5272375E+04
 5.1029930E+01  2.5456414E+04
 5.1069939E+01  2.5583816E+04
 5.1109943E+01  2.5661584E+04
 5.1149952E+01  2.5752773E+04
 5.1189960E+01  2.5675156E+04
 5.1229969E+01  2.5331281E+04
 5.1269978E+01  2.4965010E+04
 5.1309986E+01  2.4485338E+04
 5.1349991E+01  2.3894627E+04
 5.1389999E+01  2.3316643E+04
 5.1430008E+01  2.2810053E+04
 5.1470016E+01  2.2451072E+04
 5.1510025E+01  2.2119061E+04
 5.1550030E+01  2.1848025E+04
 5.1590038E+01  2.1660205E+04
 5.1630047E+01  2.1530422E+04
 5.1670055E+01  2.1508639E+04
 5.1710064E+01  2.1534195E+04
 5.1750069E+01  2.1575816E+04
 5.1790077E+01  2.1741018E+04
 5.1830086E+01  2.1901131E+04
 5.1870094E+01  2.2212074E+04
 5.1910103E+01  2.2549393E+04
 5.1950108E+01  2.2844637E+04
 5.1990116E+01  2.3310963E+04
 5.2030125E+01  2.3675846E+04
 5.2070133E+01  2.3930658E+04
 5.2110142E+01  2.4089367E+04
 5.2150146E+01  2.4019582E+04
 5.2190155E+01  2.3913117E+04
 5.2230164E+01  2.3752883E+04
 5.2270172E+01  2.3405256E+04
 5.2310181E+01  2.3143422E+04
 5.2350185E+01  2.2950234E+04
 5.2390194E+01  2.2781041E+04
 5.2430202E+01  2.2615621E+04
 5.2470211E+01  2.2570742E+04
 5.2510220E+01  2.2526689E+04
 5.2550224E+01  2.2581416E+04
 5.2590233E+01  2.2566945E+04
 5.2630241E+01  2.2443303E+04
 5.2670250E+01  2.2274215E+04
 5.2710258E+01  2.2047537E+04
 5.2750263E+01  2.1946582E+04
 5.2790272E+01  2.1763514E+04
 5.2830280E+01  2.1718865E+04
 5.2870289E+01  2.1587986E+04
 5.2910297E+01  2.1511768E+04
 5.2950302E+01  2.1408699E+04
 5.2990311E+01  2.1281133E+04
 5.3030319E+01  2.1119648E+04
 5.3070328E+01  2.0983100E+04
 5.3110336E+01  2.0762918E+04
 5.3150341E+01  2.0711027E+04
 5.3190350E+01  2.0545178E+04
 5.3230358E+01  2.0474605E+04
 5.3270367E+01  2.0494477E+04
 5.3310375E+01  2.0586162E+04
 5.3350380E+01  2.0666076E+04
 5.3390388E+01  2.0759447E+04
 5.3430397E+01  2.0891848E+04
 5.3470406E+01  2.1082654E+04
 5.3510414E+01  2.1229320E+04
 5.3550419E+01  2.1448678E+04
 5.3590427E+01  2.1602717E+04
 5.3630436E+01  2.1863408E+04
 5.3670444E+01  2.2082084E+04
 5.3710453E+01  2.2408174E+04
 5.3750458E+01  2.2603664E+04
 5.3790466E+01  2.2668391E+04
 5.3830475E+01  2.2590361E+04
 5.3870483E+01  2.2555977E+04
 5.3910492E+01  2.2283012E+04
 5.3950497E+01  2.1998928E+04
 5.3990505E+01  2.1674971E+04
 5.4030514E+01  2.1306941E+04
 5.4070522E+01  2.0999805E+04
 5.4110531E+01  2.0788221E+04
 5.4150536E+01  2.0656631E+04
 5.4190544E+01  2.0467533E+04
 5.4230553E+01  2.0405176E+04
 5.4270561E+01  2.0261658E+04
 5.4310570E+01  2.0221992E+04
 5.4350574E+01  2.0124354E+04
 5.4390583E+01  2.0055793E+04
 5.4430592E+01  1.9931936E+04
 5.4470600E+01  1.9823111E+04
 5.4510609E+01  1.9740605E+04
 5.4550613E+01  1.9703635E+04
 5.4590622E+01  1.9650938E+04
 5.4630630E+01  1.9616240E+04
 5.4670639E+01  1.9478258E+04
 5.4710648E+01  1.9352115E+04
 5.4750652E+01  1.9257713E+04
 5.4790661E+01  1.9084561E+04
 5.4830669E+01  1.8950217E+04
 5.4870678E+01  1.8801689E+04
 5.4910686E+01  1.8827229E+04
 5.4950691E+01  1.8880705E+04
 5.4990700E+01  1.8890324E+04
 5.5030708E+01  1.8895457E+04
 5.5070717E+01  1.8979055E+04
 5.5110725E+01  1.9009109E+04
 5.5150730E+01  1.9098969E+04
 5.5190739E+01  1.9277191E+04
 5.5230747E+01  1.9396715E+04
 5.5270756E+01  1.9424084E+04
 5.5310764E+01  1.9747227E+04
 5.5350769E+01  1.9948078E+04
 5.5390778E+01  2.0086699E+04
 5.5430786E+01  2.0215396E+04
 5.5470795E+01  2.0375529E+04
 5.5510803E+01  2.0390865E+04
 5.5550808E+01  2.0458377E+04
 5.5590816E+01  2.0427082E+04
 5.5630825E+01  2.0388494E+04
 5.5670834E+01  2.0337955E+04
 5.5710842E+01  2.0291027E+04
 5.5750847E+01  2.0347439E+04
 5.5790855E+01  2.0402916E+04
 5.5830864E+01  2.0477898E+04
 5.5870872E+01  2.0690592E+04
 5.5910881E+01  2.0823289E+04
 5.5950886E+01  2.0953115E+04
 5.5990894E+01  2.1116475E+04
 5.6030903E+01  2.1270000E+04
 5.6070911E+01  2.1296848E+04
 5.6110920E+01  2.1329215E+04
 5.6150925E+01  2.1515084E+04
 5.6190933E+01  2.1547139E+04
 5.6230942E+01  2.1684988E+04
 5.6270950E+01  2.1579625E+04
 5.6310959E+01  2.1511010E+04
 5.6350964E+01  2.1270977E+04
 5.6390972E+01  2.1001213E+04
 5.6430981E+01  2.0660918E+04
 5.6470989E+01  2.0266428E+04
 5.6510998E+01  1.9936707E+04
 5.6551003E+01  1.9564051E+04
 5.6591011E+01  1.9282064E+04
 5.6631020E+01  1.8979564E+04
 5.6671028E+01  1.8871461E+04
 5.6711037E+01  1.8672012E+04
 5.6751041E+01  1.8496564E+04
 5.6791050E+01  1.8420754E+04
 5.6831059E+01  1.8275658E+04
 5.6871067E+01  1.8095260E+04
 5.6911076E+01  1.7991867E+04
 5.6951080E+01  1.8154977E+04
 5.6991089E+01  1.8289641E+04
 5.7031097E+01  1.8230270E+04
 5.7071106E+01  1.8204938E+04
 5.7111115E+01  1.8155080E+04
 5.7151119E+01  1.8054381E+04
 5.7191128E+01  1.7949250E+04
 5.7231136E+01  1.7668414E+04
 5.7271145E+01  1.7515838E+04
 5.7311153E+01  1.7455668E+04
 5.7351158E+01  1.7011160E+04
 5.7391167E+01  1.6611279E+04
 5.7431175E+01  1.6392459E+04
 5.7471184E+01  1.6298212E+04
 5.7511192E+01  1.5951370E+04
 5.7551197E+01  1.5935666E+04
 5.7591206E+01  1.5404607E+04
 5.7631214E+01  1.4911302E+04
 5.7671223E+01  1.4478435E+04
 5.7711231E+01  1.4777263E+04
 5.7751236E+01  1.4794923E+04
 5.7791245E+01  1.4634238E+04
 5.7831253E+01  1.4491854E+04
 5.7871262E+01  1.4575979E+04
 5.7911270E+01  1.4717931E+04
 5.7951275E+01  1.4815419E+04
 5.7991283E+01  1.5003553E+04
 5.8031292E+01  1.5079433E+04
 5.8071301E+01  1.4792794E+04
 5.8111309E+01  1.4084451E+04
 5.8151314E+01  1.4032672E+04
 5.8191322E+01  1.3188684E+04
 5.8231331E+01  1.2647570E+04
 5.8271339E+01  1.1928641E+04
 5.8311348E+01  1.0331536E+04
 5.8351353E+01  8.3973779E+03
 5.8391361E+01  7.7073442E+03
 5.8431370E+01  6.8049619E+03
 5.8471378E+01  6.9028174E+03
 5.8511387E+01  4.9201133E+03
 5.8551392E+01  3.4280784E+03
 5.8591400E+01  1.7009233E+03
