Pt_bulk_ramp03-00908.tif: 2-theta Scan
2-Theta Angle (Degrees)

       1465
 2.0003892E-02  0.0000000E+00
 6.0011677E-02  0.0000000E+00
 1.0001946E-01  0.0000000E+00
 1.4002724E-01  0.0000000E+00
 1.8003502E-01  0.0000000E+00
 2.2004281E-01  0.0000000E+00
 2.6005059E-01  0.0000000E+00
 3.0005839E-01  0.0000000E+00
 3.4006616E-01  0.0000000E+00
 3.8007396E-01  0.0000000E+00
 4.2008173E-01  0.0000000E+00
 4.6008953E-01  0.0000000E+00
 5.0009733E-01  0.0000000E+00
 5.4010510E-01  0.0000000E+00
 5.8011287E-01  0.0000000E+00
 6.2012064E-01  0.0000000E+00
 6.6012847E-01  0.0000000E+00
 7.0013624E-01  0.0000000E+00
 7.4014401E-01  1.6238506E+04
 7.8015178E-01  1.8925008E+04
 8.2015961E-01  2.9869320E+04
 8.6016738E-01  4.9457559E+04
 9.0017515E-01  7.5837141E+04
 9.4018292E-01  9.0084883E+04
 9.8019075E-01  9.0128039E+04
 1.0201985E+00  8.4804570E+04
 1.0602063E+00  7.8587172E+04
 1.1002141E+00  7.4129797E+04
 1.1402218E+00  6.9667305E+04
 1.1802297E+00  6.6017570E+04
 1.2202375E+00  6.3206816E+04
 1.2602452E+00  6.0715562E+04
 1.3002530E+00  5.8691105E+04
 1.3402607E+00  5.6982801E+04
 1.3802686E+00  5.5407191E+04
 1.4202764E+00  5.4276965E+04
 1.4602841E+00  5.3266938E+04
 1.5002919E+00  5.2327402E+04
 1.5402998E+00  5.1629023E+04
 1.5803075E+00  5.0889469E+04
 1.6203153E+00  5.0186250E+04
 1.6603230E+00  4.9704340E+04
 1.7003309E+00  4.9514594E+04
 1.7403387E+00  4.9834039E+04
 1.7803464E+00  5.0227949E+04
 1.8203542E+00  4.9909598E+04
 1.8603621E+00  4.8880820E+04
 1.9003698E+00  4.7810320E+04
 1.9403776E+00  4.7436633E+04
 1.9803853E+00  4.7526148E+04
 2.0203931E+00  4.7855422E+04
 2.0604010E+00  4.8117359E+04
 2.1004088E+00  4.8085242E+04
 2.1404164E+00  4.7817762E+04
 2.1804242E+00  4.7563809E+04
 2.2204320E+00  4.7597836E+04
 2.2604399E+00  4.7776270E+04
 2.3004477E+00  4.7886836E+04
 2.3404555E+00  4.8068367E+04
 2.3804631E+00  4.8217512E+04
 2.4204710E+00  4.8425047E+04
 2.4604788E+00  4.8722516E+04
 2.5004866E+00  4.9102098E+04
 2.5404944E+00  4.9652035E+04
 2.5805020E+00  5.0067973E+04
 2.6205099E+00  5.0196785E+04
 2.6605177E+00  4.9980461E+04
 2.7005255E+00  4.9265051E+04
 2.7405334E+00  4.8343133E+04
 2.7805409E+00  4.7440461E+04
 2.8205488E+00  4.6728414E+04
 2.8605566E+00  4.6194020E+04
 2.9005644E+00  4.5729828E+04
 2.9405723E+00  4.5100824E+04
 2.9805801E+00  4.4135691E+04
 3.0205877E+00  4.3048047E+04
 3.0605955E+00  4.2118926E+04
 3.1006033E+00  4.1429438E+04
 3.1406112E+00  4.0924445E+04
 3.1806190E+00  4.0490133E+04
 3.2206266E+00  4.0171227E+04
 3.2606344E+00  3.9925516E+04
 3.3006423E+00  3.9793281E+04
 3.3406501E+00  3.9906746E+04
 3.3806579E+00  4.0259742E+04
 3.4206655E+00  4.0704219E+04
 3.4606733E+00  4.0880809E+04
 3.5006812E+00  4.0785688E+04
 3.5406890E+00  4.0616898E+04
 3.5806968E+00  4.0558891E+04
 3.6207047E+00  4.0567844E+04
 3.6607122E+00  4.0548262E+04
 3.7007201E+00  4.0454148E+04
 3.7407279E+00  4.0364945E+04
 3.7807357E+00  4.0212930E+04
 3.8207436E+00  3.9975004E+04
 3.8607512E+00  3.9782500E+04
 3.9007590E+00  3.9642645E+04
 3.9407668E+00  3.9548648E+04
 3.9807746E+00  3.9522918E+04
 4.0207825E+00  3.9622512E+04
 4.0607901E+00  3.9863914E+04
 4.1007981E+00  4.0145164E+04
 4.1408057E+00  4.0425117E+04
 4.1808133E+00  4.0723285E+04
 4.2208214E+00  4.1105426E+04
 4.2608290E+00  4.1612711E+04
 4.3008370E+00  4.2222250E+04
 4.3408446E+00  4.2940051E+04
 4.3808522E+00  4.3834250E+04
 4.4208603E+00  4.4932930E+04
 4.4608679E+00  4.6253793E+04
 4.5008759E+00  4.7772703E+04
 4.5408835E+00  4.9455836E+04
 4.5808916E+00  5.1432520E+04
 4.6208992E+00  5.3733625E+04
 4.6609068E+00  5.6379234E+04
 4.7009149E+00  5.9524023E+04
 4.7409225E+00  6.3312945E+04
 4.7809305E+00  6.7907375E+04
 4.8209381E+00  7.3579141E+04
 4.8609457E+00  8.0594453E+04
 4.9009538E+00  8.9499984E+04
 4.9409614E+00  1.0109477E+05
 4.9809694E+00  1.1607119E+05
 5.0209770E+00  1.3653205E+05
 5.0609846E+00  1.6507944E+05
 5.1009927E+00  2.0571823E+05
 5.1410003E+00  2.7070941E+05
 5.1810083E+00  3.8458288E+05
 5.2210159E+00  6.0895062E+05
 5.2610235E+00  1.1014651E+06
 5.3010316E+00  2.0278788E+06
 5.3410392E+00  3.1600738E+06
 5.3810472E+00  3.6781335E+06
 5.4210548E+00  3.6783038E+06
 5.4610624E+00  3.1351865E+06
 5.5010705E+00  2.0037619E+06
 5.5410781E+00  1.0507255E+06
 5.5810862E+00  5.6479438E+05
 5.6210938E+00  3.4953612E+05
 5.6611013E+00  2.4744806E+05
 5.7011094E+00  1.9724517E+05
 5.7411170E+00  1.7090050E+05
 5.7811251E+00  1.5772330E+05
 5.8211327E+00  1.5384216E+05
 5.8611407E+00  1.5729902E+05
 5.9011483E+00  1.6921939E+05
 5.9411559E+00  1.9212883E+05
 5.9811640E+00  2.3295072E+05
 6.0211716E+00  3.0860956E+05
 6.0611796E+00  4.5059931E+05
 6.1011872E+00  7.2288738E+05
 6.1411948E+00  1.1775192E+06
 6.1812029E+00  1.7176728E+06
 6.2212105E+00  2.0747848E+06
 6.2612185E+00  1.9753139E+06
 6.3012261E+00  1.4922378E+06
 6.3412337E+00  9.2620706E+05
 6.3812418E+00  5.2914694E+05
 6.4212494E+00  3.0601400E+05
 6.4612575E+00  1.9472084E+05
 6.5012650E+00  1.3696652E+05
 6.5412726E+00  1.0460245E+05
 6.5812807E+00  8.5507031E+04
 6.6212883E+00  7.3095367E+04
 6.6612964E+00  6.4517281E+04
 6.7013040E+00  5.8488703E+04
 6.7413116E+00  5.3953043E+04
 6.7813196E+00  5.0446090E+04
 6.8213272E+00  4.7683934E+04
 6.8613353E+00  4.5396656E+04
 6.9013429E+00  4.3462734E+04
 6.9413505E+00  4.1820414E+04
 6.9813585E+00  4.0324195E+04
 7.0213661E+00  3.9097188E+04
 7.0613742E+00  3.8118238E+04
 7.1013818E+00  3.7243137E+04
 7.1413898E+00  3.6518734E+04
 7.1813974E+00  3.5921016E+04
 7.2214050E+00  3.5382926E+04
 7.2614131E+00  3.4953582E+04
 7.3014207E+00  3.4583652E+04
 7.3414288E+00  3.4304246E+04
 7.3814363E+00  3.4118395E+04
 7.4214439E+00  3.4006426E+04
 7.4614520E+00  3.3915375E+04
 7.5014596E+00  3.3815148E+04
 7.5414677E+00  3.3753973E+04
 7.5814753E+00  3.3754789E+04
 7.6214828E+00  3.3815605E+04
 7.6614909E+00  3.3973344E+04
 7.7014985E+00  3.4237965E+04
 7.7415066E+00  3.4563648E+04
 7.7815142E+00  3.4923445E+04
 7.8215218E+00  3.5363703E+04
 7.8615298E+00  3.5884859E+04
 7.9015374E+00  3.6544301E+04
 7.9415455E+00  3.7341113E+04
 7.9815531E+00  3.8231281E+04
 8.0215607E+00  3.9255832E+04
 8.0615683E+00  4.0442742E+04
 8.1015768E+00  4.1850668E+04
 8.1415844E+00  4.3512727E+04
 8.1815920E+00  4.5519332E+04
 8.2215996E+00  4.7968875E+04
 8.2616072E+00  5.0989117E+04
 8.3016157E+00  5.4762152E+04
 8.3416233E+00  5.9541270E+04
 8.3816309E+00  6.5773250E+04
 8.4216385E+00  7.4050508E+04
 8.4616461E+00  8.5285242E+04
 8.5016546E+00  1.0117592E+05
 8.5416622E+00  1.2510284E+05
 8.5816698E+00  1.6337430E+05
 8.6216774E+00  2.3053294E+05
 8.6616850E+00  3.5651969E+05
 8.7016935E+00  5.8357806E+05
 8.7417011E+00  9.3960444E+05
 8.7817087E+00  1.3212204E+06
 8.8217163E+00  1.5245246E+06
 8.8617239E+00  1.3992315E+06
 8.9017324E+00  1.0421267E+06
 8.9417400E+00  6.6039644E+05
 8.9817476E+00  3.9258634E+05
 9.0217552E+00  2.4136108E+05
 9.0617638E+00  1.6125095E+05
 9.1017714E+00  1.1905116E+05
 9.1417789E+00  9.5426836E+04
 9.1817865E+00  8.1175164E+04
 9.2217941E+00  7.2297492E+04
 9.2618027E+00  6.6450695E+04
 9.3018103E+00  6.2480770E+04
 9.3418179E+00  5.9860641E+04
 9.3818254E+00  5.8115719E+04
 9.4218330E+00  5.7053969E+04
 9.4618416E+00  5.6572246E+04
 9.5018492E+00  5.6535227E+04
 9.5418568E+00  5.6960902E+04
 9.5818644E+00  5.7792453E+04
 9.6218719E+00  5.9085406E+04
 9.6618805E+00  6.0923789E+04
 9.7018881E+00  6.3354070E+04
 9.7418957E+00  6.6569234E+04
 9.7819033E+00  7.0663125E+04
 9.8219109E+00  7.5848008E+04
 9.8619194E+00  8.2592234E+04
 9.9019270E+00  9.1298930E+04
 9.9419346E+00  1.0309391E+05
 9.9819422E+00  1.1933252E+05
 1.0021950E+01  1.4202436E+05
 1.0061958E+01  1.7556011E+05
 1.0101966E+01  2.2848109E+05
 1.0141973E+01  3.1648178E+05
 1.0181981E+01  4.7129556E+05
 1.0221989E+01  7.3786269E+05
 1.0261997E+01  1.1270562E+06
 1.0302005E+01  1.5478820E+06
 1.0342012E+01  1.7772132E+06
 1.0382020E+01  1.6735366E+06
 1.0422028E+01  1.2977422E+06
 1.0462036E+01  8.7567281E+05
 1.0502044E+01  5.5658312E+05
 1.0542051E+01  3.6825809E+05
 1.0582059E+01  2.7479853E+05
 1.0622066E+01  2.4292116E+05
 1.0662075E+01  2.6266441E+05
 1.0702083E+01  3.3523922E+05
 1.0742090E+01  4.5138088E+05
 1.0782098E+01  5.5715600E+05
 1.0822105E+01  5.7998719E+05
 1.0862114E+01  4.9554681E+05
 1.0902122E+01  3.5705059E+05
 1.0942129E+01  2.3321764E+05
 1.0982137E+01  1.5176667E+05
 1.1022144E+01  1.0644845E+05
 1.1062153E+01  8.1611617E+04
 1.1102160E+01  6.7472266E+04
 1.1142168E+01  5.8876156E+04
 1.1182176E+01  5.3174605E+04
 1.1222183E+01  4.9165953E+04
 1.1262192E+01  4.6218043E+04
 1.1302199E+01  4.3941496E+04
 1.1342207E+01  4.2133906E+04
 1.1382215E+01  4.0716047E+04
 1.1422222E+01  3.9583379E+04
 1.1462231E+01  3.8674430E+04
 1.1502238E+01  3.7874629E+04
 1.1542246E+01  3.7146590E+04
 1.1582253E+01  3.6547523E+04
 1.1622262E+01  3.6085434E+04
 1.1662270E+01  3.5719984E+04
 1.1702277E+01  3.5460430E+04
 1.1742285E+01  3.5309176E+04
 1.1782292E+01  3.5301938E+04
 1.1822301E+01  3.5440793E+04
 1.1862309E+01  3.5726234E+04
 1.1902316E+01  3.6192652E+04
 1.1942324E+01  3.6976836E+04
 1.1982331E+01  3.8250156E+04
 1.2022340E+01  4.0299250E+04
 1.2062347E+01  4.1720281E+04
 1.2102355E+01  4.3543438E+04
 1.2142363E+01  4.6303355E+04
 1.2182370E+01  5.0838891E+04
 1.2222379E+01  5.7579980E+04
 1.2262386E+01  6.8036086E+04
 1.2302394E+01  8.4469102E+04
 1.2342402E+01  1.1042054E+05
 1.2382409E+01  1.4769986E+05
 1.2422418E+01  1.9057144E+05
 1.2462425E+01  2.2316502E+05
 1.2502433E+01  2.2739836E+05
 1.2542440E+01  2.0107084E+05
 1.2582448E+01  1.5853375E+05
 1.2622457E+01  1.1838404E+05
 1.2662464E+01  8.9371242E+04
 1.2702472E+01  7.1002312E+04
 1.2742479E+01  6.0158793E+04
 1.2782487E+01  5.3919051E+04
 1.2822495E+01  5.0417242E+04
 1.2862503E+01  4.8645805E+04
 1.2902511E+01  4.8036367E+04
 1.2942518E+01  4.8266531E+04
 1.2982526E+01  4.9178199E+04
 1.3022534E+01  5.0672457E+04
 1.3062542E+01  5.2821324E+04
 1.3102550E+01  5.5746176E+04
 1.3142557E+01  5.9594262E+04
 1.3182565E+01  6.4629160E+04
 1.3222573E+01  7.1278531E+04
 1.3262581E+01  8.0271266E+04
 1.3302588E+01  9.2776016E+04
 1.3342596E+01  1.1073572E+05
 1.3382604E+01  1.3816047E+05
 1.3422612E+01  1.8239122E+05
 1.3462620E+01  2.5550889E+05
 1.3502627E+01  3.7002625E+05
 1.3542635E+01  5.2040800E+05
 1.3582643E+01  6.5945556E+05
 1.3622651E+01  7.1966094E+05
 1.3662659E+01  6.6982262E+05
 1.3702666E+01  5.5172988E+05
 1.3742674E+01  4.3559703E+05
 1.3782681E+01  3.7005912E+05
 1.3822690E+01  3.7011959E+05
 1.3862698E+01  4.3198562E+05
 1.3902705E+01  5.3160031E+05
 1.3942713E+01  6.1580900E+05
 1.3982720E+01  6.2757488E+05
 1.4022729E+01  5.5084050E+05
 1.4062737E+01  4.2537734E+05
 1.4102744E+01  3.0251644E+05
 1.4142752E+01  2.1088064E+05
 1.4182760E+01  1.5110544E+05
 1.4222768E+01  1.1408255E+05
 1.4262775E+01  9.1371117E+04
 1.4302783E+01  7.7092148E+04
 1.4342791E+01  6.7726422E+04
 1.4382799E+01  6.1444930E+04
 1.4422807E+01  5.7087703E+04
 1.4462814E+01  5.4002172E+04
 1.4502822E+01  5.1794047E+04
 1.4542830E+01  5.0229910E+04
 1.4582838E+01  4.9180109E+04
 1.4622846E+01  4.8611852E+04
 1.4662853E+01  4.8484301E+04
 1.4702861E+01  4.8779031E+04
 1.4742868E+01  4.9471492E+04
 1.4782877E+01  5.0666562E+04
 1.4822885E+01  5.2465176E+04
 1.4862892E+01  5.5050676E+04
 1.4902900E+01  5.8656285E+04
 1.4942907E+01  6.3666746E+04
 1.4982916E+01  7.0685852E+04
 1.5022923E+01  8.0773578E+04
 1.5062931E+01  9.5857664E+04
 1.5102939E+01  1.1952087E+05
 1.5142946E+01  1.5741314E+05
 1.5182955E+01  2.1656984E+05
 1.5222962E+01  2.9696856E+05
 1.5262970E+01  3.7993006E+05
 1.5302978E+01  4.2900919E+05
 1.5342985E+01  4.1655222E+05
 1.5382994E+01  3.5059250E+05
 1.5423001E+01  2.6525509E+05
 1.5463009E+01  1.9109102E+05
 1.5503016E+01  1.3893739E+05
 1.5543024E+01  1.0588385E+05
 1.5583033E+01  8.5953500E+04
 1.5623040E+01  7.4201188E+04
 1.5663048E+01  6.7392430E+04
 1.5703055E+01  6.3767988E+04
 1.5743063E+01  6.2411297E+04
 1.5783072E+01  6.2858910E+04
 1.5823079E+01  6.5043273E+04
 1.5863087E+01  6.9136711E+04
 1.5903094E+01  7.5614914E+04
 1.5943102E+01  8.5388531E+04
 1.5983110E+01  1.0003920E+05
 1.6023117E+01  1.2243206E+05
 1.6063126E+01  1.5723766E+05
 1.6103134E+01  2.1005355E+05
 1.6143141E+01  2.8272319E+05
 1.6183149E+01  3.6306400E+05
 1.6223156E+01  4.2142600E+05
 1.6263165E+01  4.2786038E+05
 1.6303173E+01  3.7817422E+05
 1.6343180E+01  2.9801669E+05
 1.6383188E+01  2.1911392E+05
 1.6423195E+01  1.5802033E+05
 1.6463203E+01  1.1649270E+05
 1.6503212E+01  8.9702133E+04
 1.6543219E+01  7.2533016E+04
 1.6583227E+01  6.1354297E+04
 1.6623234E+01  5.3871793E+04
 1.6663242E+01  4.8717512E+04
 1.6703251E+01  4.5054367E+04
 1.6743258E+01  4.2401516E+04
 1.6783266E+01  4.0437707E+04
 1.6823273E+01  3.8989137E+04
 1.6863281E+01  3.7895625E+04
 1.6903290E+01  3.7088297E+04
 1.6943296E+01  3.6503352E+04
 1.6983305E+01  3.6159051E+04
 1.7023312E+01  3.5980004E+04
 1.7063320E+01  3.5936527E+04
 1.7103329E+01  3.6077457E+04
 1.7143335E+01  3.6386359E+04
 1.7183344E+01  3.6884215E+04
 1.7223351E+01  3.7632004E+04
 1.7263359E+01  3.8675098E+04
 1.7303368E+01  4.0103809E+04
 1.7343374E+01  4.2041574E+04
 1.7383383E+01  4.4706555E+04
 1.7423389E+01  4.8426211E+04
 1.7463398E+01  5.3846090E+04
 1.7503407E+01  6.2039008E+04
 1.7543413E+01  7.4484070E+04
 1.7583422E+01  9.2311875E+04
 1.7623428E+01  1.1417858E+05
 1.7663437E+01  1.3406752E+05
 1.7703445E+01  1.4352512E+05
 1.7743452E+01  1.3811514E+05
 1.7783461E+01  1.2143504E+05
 1.7823467E+01  1.0143274E+05
 1.7863476E+01  8.4468711E+04
 1.7903484E+01  7.2731391E+04
 1.7943491E+01  6.5779289E+04
 1.7983500E+01  6.2433531E+04
 1.8023508E+01  6.1763945E+04
 1.8063515E+01  6.3276629E+04
 1.8103523E+01  6.6673492E+04
 1.8143530E+01  7.2102211E+04
 1.8183538E+01  8.0026594E+04
 1.8223547E+01  9.1436852E+04
 1.8263554E+01  1.0799995E+05
 1.8303562E+01  1.3261600E+05
 1.8343569E+01  1.6964659E+05
 1.8383577E+01  2.2356823E+05
 1.8423586E+01  2.9379781E+05
 1.8463593E+01  3.6670722E+05
 1.8503601E+01  4.1730784E+05
 1.8543608E+01  4.2578769E+05
 1.8583616E+01  3.9577075E+05
 1.8623625E+01  3.5199778E+05
 1.8663631E+01  3.2021853E+05
 1.8703640E+01  3.0955978E+05
 1.8743647E+01  3.1008519E+05
 1.8783655E+01  3.0260372E+05
 1.8823664E+01  2.7490906E+05
 1.8863670E+01  2.3035211E+05
 1.8903679E+01  1.8208916E+05
 1.8943686E+01  1.4090983E+05
 1.8983694E+01  1.1052193E+05
 1.9023703E+01  8.9638945E+04
 1.9063709E+01  7.5692742E+04
 1.9103718E+01  6.6436891E+04
 1.9143724E+01  6.0225215E+04
 1.9183733E+01  5.6014160E+04
 1.9223742E+01  5.3168207E+04
 1.9263748E+01  5.1332078E+04
 1.9303757E+01  5.0310637E+04
 1.9343763E+01  5.0029043E+04
 1.9383772E+01  5.0469117E+04
 1.9423780E+01  5.1707781E+04
 1.9463787E+01  5.3929574E+04
 1.9503796E+01  5.7387777E+04
 1.9543802E+01  6.2591938E+04
 1.9583811E+01  7.0373531E+04
 1.9623819E+01  8.1748812E+04
 1.9663826E+01  9.7620391E+04
 1.9703835E+01  1.1765572E+05
 1.9743841E+01  1.3833627E+05
 1.9783850E+01  1.5286472E+05
 1.9823858E+01  1.5510223E+05
 1.9863865E+01  1.4392902E+05
 1.9903873E+01  1.2450405E+05
 1.9943880E+01  1.0375495E+05
 1.9983889E+01  8.6228992E+04
 2.0023897E+01  7.3445211E+04
 2.0063904E+01  6.4891203E+04
 2.0103912E+01  5.9646945E+04
 2.0143919E+01  5.6993246E+04
 2.0183928E+01  5.6329043E+04
 2.0223936E+01  5.7438227E+04
 2.0263943E+01  6.0418680E+04
 2.0303951E+01  6.5724484E+04
 2.0343958E+01  7.4288641E+04
 2.0383966E+01  8.7392383E+04
 2.0423975E+01  1.0624194E+05
 2.0463982E+01  1.2973357E+05
 2.0503990E+01  1.5287583E+05
 2.0543997E+01  1.6842633E+05
 2.0584005E+01  1.7225169E+05
 2.0624014E+01  1.6753719E+05
 2.0664021E+01  1.6178216E+05
 2.0704029E+01  1.5990605E+05
 2.0744036E+01  1.6013445E+05
 2.0784044E+01  1.5657177E+05
 2.0824053E+01  1.4482794E+05
 2.0864059E+01  1.2598623E+05
 2.0904068E+01  1.0487836E+05
 2.0944075E+01  8.5888086E+04
 2.0984083E+01  7.1087031E+04
 2.1024092E+01  6.0401395E+04
 2.1064098E+01  5.2893227E+04
 2.1104107E+01  4.7692066E+04
 2.1144114E+01  4.4122148E+04
 2.1184122E+01  4.1657605E+04
 2.1224131E+01  3.9967168E+04
 2.1264137E+01  3.8858754E+04
 2.1304146E+01  3.8217164E+04
 2.1344152E+01  3.7984203E+04
 2.1384161E+01  3.8156070E+04
 2.1424170E+01  3.8700074E+04
 2.1464176E+01  3.9742586E+04
 2.1504185E+01  4.1489430E+04
 2.1544191E+01  4.4309949E+04
 2.1584200E+01  4.8478199E+04
 2.1624208E+01  5.3972324E+04
 2.1664215E+01  5.9898328E+04
 2.1704224E+01  6.4323332E+04
 2.1744230E+01  6.5453074E+04
 2.1784239E+01  6.3153578E+04
 2.1824247E+01  5.8968285E+04
 2.1864254E+01  5.4835922E+04
 2.1904263E+01  5.1950953E+04
 2.1944269E+01  5.0765141E+04
 2.1984278E+01  5.1232117E+04
 2.2024286E+01  5.3211820E+04
 2.2064293E+01  5.6741930E+04
 2.2104301E+01  6.2095875E+04
 2.2144308E+01  6.9845609E+04
 2.2184317E+01  8.0824672E+04
 2.2224325E+01  9.6263523E+04
 2.2264332E+01  1.1716023E+05
 2.2304340E+01  1.4264392E+05
 2.2344347E+01  1.6829481E+05
 2.2384356E+01  1.8707266E+05
 2.2424364E+01  1.9347797E+05
 2.2464371E+01  1.8796338E+05
 2.2504379E+01  1.7642172E+05
 2.2544386E+01  1.6493428E+05
 2.2584394E+01  1.5506742E+05
 2.2624403E+01  1.4439538E+05
 2.2664410E+01  1.3059489E+05
 2.2704418E+01  1.1401204E+05
 2.2744425E+01  9.7215984E+04
 2.2784433E+01  8.2655430E+04
 2.2824442E+01  7.1332461E+04
 2.2864449E+01  6.3148523E+04
 2.2904457E+01  5.7572840E+04
 2.2944464E+01  5.3938086E+04
 2.2984472E+01  5.1806199E+04
 2.3024481E+01  5.0849434E+04
 2.3064487E+01  5.0920508E+04
 2.3104496E+01  5.1953152E+04
 2.3144505E+01  5.4030926E+04
 2.3184511E+01  5.7375770E+04
 2.3224520E+01  6.2402930E+04
 2.3264526E+01  6.9828742E+04
 2.3304535E+01  8.0690867E+04
 2.3344543E+01  9.5942680E+04
 2.3384550E+01  1.1531402E+05
 2.3424559E+01  1.3576283E+05
 2.3464565E+01  1.5116016E+05
 2.3504574E+01  1.5555119E+05
 2.3544582E+01  1.4754462E+05
 2.3584589E+01  1.3119980E+05
 2.3624598E+01  1.1276038E+05
 2.3664604E+01  9.6928156E+04
 2.3704613E+01  8.5520750E+04
 2.3744621E+01  7.8597898E+04
 2.3784628E+01  7.5663914E+04
 2.3824636E+01  7.6385430E+04
 2.3864643E+01  8.0710523E+04
 2.3904652E+01  8.9157312E+04
 2.3944660E+01  1.0260902E+05
 2.3984667E+01  1.2160323E+05
 2.4024675E+01  1.4476280E+05
 2.4064682E+01  1.6723773E+05
 2.4104691E+01  1.8128253E+05
 2.4144699E+01  1.8087939E+05
 2.4184706E+01  1.6598986E+05
 2.4224714E+01  1.4240353E+05
 2.4264721E+01  1.1741968E+05
 2.4304729E+01  9.5783008E+04
 2.4344738E+01  7.8908406E+04
 2.4384745E+01  6.6419680E+04
 2.4424753E+01  5.7390906E+04
 2.4464760E+01  5.0913703E+04
 2.4504768E+01  4.6204832E+04
 2.4544777E+01  4.2765000E+04
 2.4584784E+01  4.0215781E+04
 2.4624792E+01  3.8318852E+04
 2.4664799E+01  3.6905957E+04
 2.4704807E+01  3.5894742E+04
 2.4744816E+01  3.5199512E+04
 2.4784822E+01  3.4766652E+04
 2.4824831E+01  3.4570000E+04
 2.4864838E+01  3.4653121E+04
 2.4904846E+01  3.5012516E+04
 2.4944855E+01  3.5714250E+04
 2.4984861E+01  3.6722340E+04
 2.5024870E+01  3.7957496E+04
 2.5064877E+01  3.9284520E+04
 2.5104885E+01  4.0361176E+04
 2.5144894E+01  4.0883879E+04
 2.5184900E+01  4.0796918E+04
 2.5224909E+01  4.0305645E+04
 2.5264915E+01  3.9784621E+04
 2.5304924E+01  3.9541352E+04
 2.5344933E+01  3.9762328E+04
 2.5384939E+01  4.0608621E+04
 2.5424948E+01  4.2160672E+04
 2.5464954E+01  4.4573422E+04
 2.5504963E+01  4.8073129E+04
 2.5544971E+01  5.2966992E+04
 2.5584978E+01  5.9538656E+04
 2.5624987E+01  6.7756406E+04
 2.5664993E+01  7.7040320E+04
 2.5705002E+01  8.6234914E+04
 2.5745010E+01  9.4270016E+04
 2.5785017E+01  1.0100059E+05
 2.5825026E+01  1.0692012E+05
 2.5865032E+01  1.1172621E+05
 2.5905041E+01  1.1362234E+05
 2.5945049E+01  1.1054323E+05
 2.5985056E+01  1.0220871E+05
 2.6025064E+01  9.0613883E+04
 2.6065071E+01  7.8450609E+04
 2.6105080E+01  6.7829836E+04
 2.6145088E+01  5.9517523E+04
 2.6185095E+01  5.3466332E+04
 2.6225103E+01  4.9277023E+04
 2.6265110E+01  4.6562934E+04
 2.6305119E+01  4.5046406E+04
 2.6345127E+01  4.4554996E+04
 2.6385134E+01  4.4975297E+04
 2.6425142E+01  4.6338824E+04
 2.6465149E+01  4.8805043E+04
 2.6505157E+01  5.2558504E+04
 2.6545166E+01  5.7714812E+04
 2.6585173E+01  6.3993895E+04
 2.6625181E+01  7.0405938E+04
 2.6665188E+01  7.5259062E+04
 2.6705196E+01  7.6946195E+04
 2.6745205E+01  7.5086852E+04
 2.6785212E+01  7.0691102E+04
 2.6825220E+01  6.5418801E+04
 2.6865227E+01  6.0801297E+04
 2.6905235E+01  5.7666406E+04
 2.6945244E+01  5.6272078E+04
 2.6985250E+01  5.6729293E+04
 2.7025259E+01  5.9213418E+04
 2.7065266E+01  6.3979363E+04
 2.7105274E+01  7.1291312E+04
 2.7145283E+01  8.0903547E+04
 2.7185289E+01  9.1547453E+04
 2.7225298E+01  1.0071159E+05
 2.7265305E+01  1.0589138E+05
 2.7305313E+01  1.0614973E+05
 2.7345322E+01  1.0256535E+05
 2.7385328E+01  9.6902375E+04
 2.7425337E+01  9.0227328E+04
 2.7465343E+01  8.2774625E+04
 2.7505352E+01  7.4700469E+04
 2.7545361E+01  6.6604672E+04
 2.7585367E+01  5.9280887E+04
 2.7625376E+01  5.3264793E+04
 2.7665382E+01  4.8672586E+04
 2.7705391E+01  4.5331219E+04
 2.7745399E+01  4.3027066E+04
 2.7785406E+01  4.1589652E+04
 2.7825415E+01  4.0847793E+04
 2.7865421E+01  4.0746559E+04
 2.7905430E+01  4.1295945E+04
 2.7945438E+01  4.2522262E+04
 2.7985445E+01  4.4469172E+04
 2.8025454E+01  4.7158660E+04
 2.8065460E+01  5.0425703E+04
 2.8105469E+01  5.3742742E+04
 2.8145477E+01  5.6292711E+04
 2.8185484E+01  5.7405109E+04
 2.8225492E+01  5.6991113E+04
 2.8265501E+01  5.5611273E+04
 2.8305508E+01  5.4160336E+04
 2.8345516E+01  5.3346668E+04
 2.8385523E+01  5.3675441E+04
 2.8425531E+01  5.5375816E+04
 2.8465540E+01  5.8730227E+04
 2.8505547E+01  6.4031133E+04
 2.8545555E+01  7.1515078E+04
 2.8585562E+01  8.1118781E+04
 2.8625570E+01  9.1854594E+04
 2.8665579E+01  1.0173140E+05
 2.8705585E+01  1.0863486E+05
 2.8745594E+01  1.1144984E+05
 2.8785601E+01  1.1052401E+05
 2.8825609E+01  1.0691488E+05
 2.8865618E+01  1.0128434E+05
 2.8905624E+01  9.3776492E+04
 2.8945633E+01  8.4796148E+04
 2.8985640E+01  7.5222492E+04
 2.9025648E+01  6.6218180E+04
 2.9065657E+01  5.8554801E+04
 2.9105663E+01  5.2466555E+04
 2.9145672E+01  4.7832781E+04
 2.9185678E+01  4.4451715E+04
 2.9225687E+01  4.2079926E+04
 2.9265696E+01  4.0533961E+04
 2.9305702E+01  3.9729367E+04
 2.9345711E+01  3.9667578E+04
 2.9385717E+01  4.0343145E+04
 2.9425726E+01  4.1798082E+04
 2.9465734E+01  4.3984941E+04
 2.9505741E+01  4.6460410E+04
 2.9545750E+01  4.8511895E+04
 2.9585756E+01  4.9416699E+04
 2.9625765E+01  4.8856801E+04
 2.9665773E+01  4.7179633E+04
 2.9705780E+01  4.5096938E+04
 2.9745789E+01  4.3325555E+04
 2.9785795E+01  4.2277211E+04
 2.9825804E+01  4.2118883E+04
 2.9865812E+01  4.2940066E+04
 2.9905819E+01  4.4746996E+04
 2.9945827E+01  4.7426754E+04
 2.9985834E+01  5.0638609E+04
 3.0025843E+01  5.3658539E+04
 3.0065851E+01  5.5546660E+04
 3.0105858E+01  5.5599738E+04
 3.0145866E+01  5.3703816E+04
 3.0185873E+01  5.0367262E+04
 3.0225882E+01  4.6455426E+04
 3.0265890E+01  4.2703508E+04
 3.0305897E+01  3.9493867E+04
 3.0345905E+01  3.6946930E+04
 3.0385912E+01  3.5015898E+04
 3.0425920E+01  3.3606434E+04
 3.0465929E+01  3.2632184E+04
 3.0505936E+01  3.2052375E+04
 3.0545944E+01  3.1789723E+04
 3.0585951E+01  3.1824488E+04
 3.0625959E+01  3.2124850E+04
 3.0665968E+01  3.2773867E+04
 3.0705975E+01  3.3775809E+04
 3.0745983E+01  3.5231141E+04
 3.0785990E+01  3.7137859E+04
 3.0825998E+01  3.9393234E+04
 3.0866007E+01  4.1682496E+04
 3.0906013E+01  4.3519797E+04
 3.0946022E+01  4.4512332E+04
 3.0986029E+01  4.4610371E+04
 3.1026037E+01  4.4156734E+04
 3.1066046E+01  4.3705801E+04
 3.1106052E+01  4.3728871E+04
 3.1146061E+01  4.4516816E+04
 3.1186068E+01  4.6354863E+04
 3.1226076E+01  4.9440242E+04
 3.1266085E+01  5.3833129E+04
 3.1306091E+01  5.9410652E+04
 3.1346100E+01  6.5479344E+04
 3.1386106E+01  7.0847047E+04
 3.1426115E+01  7.4237688E+04
 3.1466124E+01  7.5005289E+04
 3.1506130E+01  7.3364695E+04
 3.1546139E+01  7.0052836E+04
 3.1586145E+01  6.5827398E+04
 3.1626154E+01  6.1184230E+04
 3.1666162E+01  5.6488191E+04
 3.1706169E+01  5.2172199E+04
 3.1746178E+01  4.8550387E+04
 3.1786184E+01  4.5736520E+04
 3.1826193E+01  4.3788465E+04
 3.1866201E+01  4.2706070E+04
 3.1906208E+01  4.2435531E+04
 3.1946217E+01  4.2925984E+04
 3.1986223E+01  4.4242320E+04
 3.2026234E+01  4.6473203E+04
 3.2066238E+01  4.9639871E+04
 3.2106247E+01  5.3574016E+04
 3.2146255E+01  5.7763039E+04
 3.2186264E+01  6.1311191E+04
 3.2226273E+01  6.3293418E+04
 3.2266277E+01  6.3174875E+04
 3.2306286E+01  6.1219281E+04
 3.2346294E+01  5.8324402E+04
 3.2386303E+01  5.5507148E+04
 3.2426311E+01  5.3480152E+04
 3.2466316E+01  5.2605465E+04
 3.2506325E+01  5.3098754E+04
 3.2546333E+01  5.4913496E+04
 3.2586342E+01  5.7917586E+04
 3.2626350E+01  6.1519539E+04
 3.2666355E+01  6.4828129E+04
 3.2706364E+01  6.6826055E+04
 3.2746372E+01  6.6938266E+04
 3.2786381E+01  6.5267910E+04
 3.2826389E+01  6.2213379E+04
 3.2866394E+01  5.8306332E+04
 3.2906403E+01  5.3965023E+04
 3.2946411E+01  4.9542828E+04
 3.2986420E+01  4.5433996E+04
 3.3026428E+01  4.1825441E+04
 3.3066433E+01  3.8820777E+04
 3.3106441E+01  3.6408320E+04
 3.3146450E+01  3.4529262E+04
 3.3186459E+01  3.3097711E+04
 3.3226467E+01  3.2020062E+04
 3.3266472E+01  3.1198639E+04
 3.3306480E+01  3.0623275E+04
 3.3346489E+01  3.0259676E+04
 3.3386497E+01  3.0066518E+04
 3.3426506E+01  3.0059014E+04
 3.3466511E+01  3.0210086E+04
 3.3506519E+01  3.0531742E+04
 3.3546528E+01  3.1020086E+04
 3.3586536E+01  3.1730002E+04
 3.3626545E+01  3.2727809E+04
 3.3666550E+01  3.4057809E+04
 3.3706558E+01  3.5821254E+04
 3.3746567E+01  3.8084934E+04
 3.3786575E+01  4.0959039E+04
 3.3826584E+01  4.4406000E+04
 3.3866589E+01  4.8296332E+04
 3.3906597E+01  5.2241750E+04
 3.3946606E+01  5.5783039E+04
 3.3986614E+01  5.8593070E+04
 3.4026623E+01  6.0307348E+04
 3.4066628E+01  6.0671148E+04
 3.4106636E+01  5.9508109E+04
 3.4146645E+01  5.6839508E+04
 3.4186653E+01  5.3122910E+04
 3.4226662E+01  4.9052809E+04
 3.4266666E+01  4.5292699E+04
 3.4306675E+01  4.2192234E+04
 3.4346684E+01  3.9814770E+04
 3.4386692E+01  3.8177398E+04
 3.4426701E+01  3.7228930E+04
 3.4466705E+01  3.6875230E+04
 3.4506714E+01  3.7113855E+04
 3.4546722E+01  3.7853141E+04
 3.4586731E+01  3.8928137E+04
 3.4626740E+01  4.0088812E+04
 3.4666744E+01  4.0964645E+04
 3.4706753E+01  4.1184398E+04
 3.4746761E+01  4.0686723E+04
 3.4786770E+01  3.9683020E+04
 3.4826778E+01  3.8467562E+04
 3.4866783E+01  3.7367883E+04
 3.4906792E+01  3.6660059E+04
 3.4946800E+01  3.6449797E+04
 3.4986809E+01  3.6735383E+04
 3.5026817E+01  3.7421152E+04
 3.5066822E+01  3.8273973E+04
 3.5106831E+01  3.8903102E+04
 3.5146839E+01  3.8952098E+04
 3.5186848E+01  3.8262066E+04
 3.5226856E+01  3.6925570E+04
 3.5266861E+01  3.5233789E+04
 3.5306870E+01  3.3507898E+04
 3.5346878E+01  3.1980287E+04
 3.5386887E+01  3.0716182E+04
 3.5426895E+01  2.9754402E+04
 3.5466900E+01  2.9055123E+04
 3.5506908E+01  2.8599980E+04
 3.5546917E+01  2.8315016E+04
 3.5586926E+01  2.8247889E+04
 3.5626934E+01  2.8353010E+04
 3.5666939E+01  2.8641580E+04
 3.5706947E+01  2.9106885E+04
 3.5746956E+01  2.9789541E+04
 3.5786964E+01  3.0616561E+04
 3.5826973E+01  3.1522070E+04
 3.5866978E+01  3.2477455E+04
 3.5906986E+01  3.3448762E+04
 3.5946995E+01  3.4410805E+04
 3.5987003E+01  3.5505133E+04
 3.6027012E+01  3.6957109E+04
 3.6067017E+01  3.8907594E+04
 3.6107025E+01  4.1438402E+04
 3.6147034E+01  4.4641457E+04
 3.6187042E+01  4.8397668E+04
 3.6227051E+01  5.2431980E+04
 3.6267056E+01  5.6103316E+04
 3.6307064E+01  5.8739855E+04
 3.6347073E+01  5.9861535E+04
 3.6387081E+01  5.9380391E+04
 3.6427090E+01  5.7567551E+04
 3.6467094E+01  5.4831848E+04
 3.6507103E+01  5.1539426E+04
 3.6547112E+01  4.8087703E+04
 3.6587120E+01  4.4853906E+04
 3.6627129E+01  4.2029348E+04
 3.6667133E+01  3.9779191E+04
 3.6707142E+01  3.8080805E+04
 3.6747150E+01  3.6958582E+04
 3.6787159E+01  3.6371633E+04
 3.6827168E+01  3.6282922E+04
 3.6867172E+01  3.6692418E+04
 3.6907181E+01  3.7492344E+04
 3.6947189E+01  3.8426660E+04
 3.6987198E+01  3.9311977E+04
 3.7027206E+01  3.9857543E+04
 3.7067211E+01  3.9909406E+04
 3.7107220E+01  3.9597922E+04
 3.7147228E+01  3.9135816E+04
 3.7187237E+01  3.8816562E+04
 3.7227245E+01  3.8916703E+04
 3.7267250E+01  3.9536648E+04
 3.7307259E+01  4.0738832E+04
 3.7347267E+01  4.2358402E+04
 3.7387276E+01  4.4102117E+04
 3.7427284E+01  4.5624352E+04
 3.7467289E+01  4.6590961E+04
 3.7507298E+01  4.6763926E+04
 3.7547306E+01  4.6092289E+04
 3.7587315E+01  4.4759141E+04
 3.7627323E+01  4.2898559E+04
 3.7667328E+01  4.0726590E+04
 3.7707336E+01  3.8554422E+04
 3.7747345E+01  3.6509062E+04
 3.7787354E+01  3.4770137E+04
 3.7827362E+01  3.3396090E+04
 3.7867367E+01  3.2398912E+04
 3.7907375E+01  3.1747463E+04
 3.7947384E+01  3.1395637E+04
 3.7987392E+01  3.1367779E+04
 3.8027401E+01  3.1617338E+04
 3.8067406E+01  3.1974252E+04
 3.8107414E+01  3.2303775E+04
 3.8147423E+01  3.2521660E+04
 3.8187431E+01  3.2558820E+04
 3.8227440E+01  3.2437664E+04
 3.8267445E+01  3.2270689E+04
 3.8307453E+01  3.2276814E+04
 3.8347462E+01  3.2496129E+04
 3.8387470E+01  3.3029020E+04
 3.8427479E+01  3.3807914E+04
 3.8467484E+01  3.4694512E+04
 3.8507492E+01  3.5540895E+04
 3.8547501E+01  3.6144961E+04
 3.8587509E+01  3.6305188E+04
 3.8627518E+01  3.5996059E+04
 3.8667522E+01  3.5301875E+04
 3.8707531E+01  3.4388047E+04
 3.8747540E+01  3.3501891E+04
 3.8787548E+01  3.2448064E+04
 3.8827557E+01  3.1645557E+04
 3.8867561E+01  3.1085086E+04
 3.8907570E+01  3.0763584E+04
 3.8947578E+01  3.0684064E+04
 3.8987587E+01  3.0928736E+04
 3.9027596E+01  3.1482562E+04
 3.9067600E+01  3.2332854E+04
 3.9107609E+01  3.3413492E+04
 3.9147617E+01  3.4585840E+04
 3.9187626E+01  3.5641254E+04
 3.9227634E+01  3.6346430E+04
 3.9267639E+01  3.6579945E+04
 3.9307648E+01  3.6411832E+04
 3.9347656E+01  3.6060160E+04
 3.9387665E+01  3.5747805E+04
 3.9427673E+01  3.5684363E+04
 3.9467678E+01  3.6010496E+04
 3.9507687E+01  3.6695730E+04
 3.9547695E+01  3.7554809E+04
 3.9587704E+01  3.8295617E+04
 3.9627712E+01  3.8604500E+04
 3.9667717E+01  3.8207895E+04
 3.9707726E+01  3.7147383E+04
 3.9747734E+01  3.5596781E+04
 3.9787743E+01  3.3864465E+04
 3.9827751E+01  3.2233674E+04
 3.9867756E+01  3.0814725E+04
 3.9907764E+01  2.9634174E+04
 3.9947773E+01  2.8730453E+04
 3.9987782E+01  2.8058092E+04
 4.0027790E+01  2.7546990E+04
 4.0067795E+01  2.7303410E+04
 4.0107803E+01  2.7154912E+04
 4.0147812E+01  2.7267514E+04
 4.0187820E+01  2.7404041E+04
 4.0227829E+01  2.7625213E+04
 4.0267834E+01  2.7862684E+04
 4.0307842E+01  2.8049236E+04
 4.0347851E+01  2.8181023E+04
 4.0387859E+01  2.8359426E+04
 4.0427868E+01  2.8576648E+04
 4.0467873E+01  2.8894443E+04
 4.0507881E+01  2.9423777E+04
 4.0547890E+01  3.0171357E+04
 4.0587898E+01  3.1138531E+04
 4.0627907E+01  3.2345094E+04
 4.0667912E+01  3.3705176E+04
 4.0707920E+01  3.5022617E+04
 4.0747929E+01  3.6171551E+04
 4.0787937E+01  3.6973258E+04
 4.0827946E+01  3.7170527E+04
 4.0867950E+01  3.6786250E+04
 4.0907959E+01  3.5898707E+04
 4.0947968E+01  3.4778691E+04
 4.0987976E+01  3.3587391E+04
 4.1027985E+01  3.2531898E+04
 4.1067993E+01  3.1744557E+04
 4.1107998E+01  3.1246418E+04
 4.1148006E+01  3.1025066E+04
 4.1188015E+01  3.1127006E+04
 4.1228024E+01  3.1455477E+04
 4.1268032E+01  3.1944732E+04
 4.1308037E+01  3.2447840E+04
 4.1348045E+01  3.2866629E+04
 4.1388054E+01  3.3178160E+04
 4.1428062E+01  3.3401496E+04
 4.1468071E+01  3.3607828E+04
 4.1508076E+01  3.3963953E+04
 4.1548084E+01  3.4569816E+04
 4.1588093E+01  3.5451344E+04
 4.1628101E+01  3.6491613E+04
 4.1668110E+01  3.7519078E+04
 4.1708115E+01  3.8288887E+04
 4.1748123E+01  3.8582074E+04
 4.1788132E+01  3.8311656E+04
 4.1828140E+01  3.7498957E+04
 4.1868149E+01  3.6324730E+04
 4.1908154E+01  3.4916184E+04
 4.1948162E+01  3.3516707E+04
 4.1988171E+01  3.2218113E+04
 4.2028179E+01  3.1137057E+04
 4.2068188E+01  3.0255023E+04
 4.2108192E+01  2.9591441E+04
 4.2148201E+01  2.9163648E+04
 4.2188210E+01  2.8915885E+04
 4.2228218E+01  2.8861969E+04
 4.2268227E+01  2.9028627E+04
 4.2308231E+01  2.9234436E+04
 4.2348240E+01  2.9479178E+04
 4.2388248E+01  2.9816539E+04
 4.2428257E+01  3.0235139E+04
 4.2468266E+01  3.0735559E+04
 4.2508270E+01  3.1421068E+04
 4.2548279E+01  3.2314725E+04
 4.2588287E+01  3.3449246E+04
 4.2628296E+01  3.4794898E+04
 4.2668304E+01  3.6222219E+04
 4.2708309E+01  3.7535688E+04
 4.2748318E+01  3.8508699E+04
 4.2788326E+01  3.8957457E+04
 4.2828335E+01  3.8823094E+04
 4.2868343E+01  3.8101758E+04
 4.2908348E+01  3.6993504E+04
 4.2948357E+01  3.5608309E+04
 4.2988365E+01  3.4093527E+04
 4.3028374E+01  3.2615391E+04
 4.3068382E+01  3.1347328E+04
 4.3108387E+01  3.0311256E+04
 4.3148396E+01  2.9560973E+04
 4.3188404E+01  2.9039607E+04
 4.3228413E+01  2.8693328E+04
 4.3268421E+01  2.8514184E+04
 4.3308426E+01  2.8429785E+04
 4.3348434E+01  2.8309639E+04
 4.3388443E+01  2.8127629E+04
 4.3428452E+01  2.7860945E+04
 4.3468460E+01  2.7525939E+04
 4.3508465E+01  2.7190070E+04
 4.3548473E+01  2.6903635E+04
 4.3588482E+01  2.6768518E+04
 4.3628490E+01  2.6705996E+04
 4.3668499E+01  2.6670629E+04
 4.3708504E+01  2.6612664E+04
 4.3748512E+01  2.6460678E+04
 4.3788521E+01  2.6156518E+04
 4.3828529E+01  2.5773365E+04
 4.3868538E+01  2.5320750E+04
 4.3908543E+01  2.4822904E+04
 4.3948551E+01  2.4400771E+04
 4.3988560E+01  2.4047166E+04
 4.4028568E+01  2.3746887E+04
 4.4068577E+01  2.3554600E+04
 4.4108582E+01  2.3439283E+04
 4.4148590E+01  2.3422445E+04
 4.4188599E+01  2.3502262E+04
 4.4228607E+01  2.3592701E+04
 4.4268616E+01  2.3816783E+04
 4.4308620E+01  2.4117436E+04
 4.4348629E+01  2.4440098E+04
 4.4388638E+01  2.4798738E+04
 4.4428646E+01  2.5271377E+04
 4.4468655E+01  2.5809111E+04
 4.4508659E+01  2.6493959E+04
 4.4548668E+01  2.7248957E+04
 4.4588676E+01  2.8162521E+04
 4.4628685E+01  2.9172865E+04
 4.4668694E+01  3.0140732E+04
 4.4708698E+01  3.0939889E+04
 4.4748707E+01  3.1444248E+04
 4.4788715E+01  3.1608459E+04
 4.4828724E+01  3.1435604E+04
 4.4868732E+01  3.1038545E+04
 4.4908737E+01  3.0468318E+04
 4.4948746E+01  2.9847588E+04
 4.4988754E+01  2.9268414E+04
 4.5028763E+01  2.8785277E+04
 4.5068771E+01  2.8512949E+04
 4.5108776E+01  2.8417609E+04
 4.5148785E+01  2.8518551E+04
 4.5188793E+01  2.8830125E+04
 4.5228802E+01  2.9211490E+04
 4.5268810E+01  2.9645797E+04
 4.5308815E+01  3.0035240E+04
 4.5348824E+01  3.0250178E+04
 4.5388832E+01  3.0297570E+04
 4.5428841E+01  3.0251150E+04
 4.5468849E+01  3.0253021E+04
 4.5508854E+01  3.0254156E+04
 4.5548862E+01  3.0407523E+04
 4.5588871E+01  3.0702633E+04
 4.5628880E+01  3.1046119E+04
 4.5668888E+01  3.1258371E+04
 4.5708893E+01  3.1333432E+04
 4.5748901E+01  3.1161938E+04
 4.5788910E+01  3.0699660E+04
 4.5828918E+01  3.0096172E+04
 4.5868927E+01  2.9364775E+04
 4.5908932E+01  2.8561195E+04
 4.5948940E+01  2.7822533E+04
 4.5988949E+01  2.7183799E+04
 4.6028957E+01  2.6641080E+04
 4.6068966E+01  2.6242316E+04
 4.6108971E+01  2.5944174E+04
 4.6148979E+01  2.5808010E+04
 4.6188988E+01  2.5737965E+04
 4.6228996E+01  2.5764838E+04
 4.6269005E+01  2.5819393E+04
 4.6309010E+01  2.5882164E+04
 4.6349018E+01  2.6053354E+04
 4.6389027E+01  2.6329426E+04
 4.6429035E+01  2.6614297E+04
 4.6469044E+01  2.7061727E+04
 4.6509048E+01  2.7605969E+04
 4.6549057E+01  2.8240246E+04
 4.6589066E+01  2.8855457E+04
 4.6629074E+01  2.9386357E+04
 4.6669083E+01  2.9755455E+04
 4.6709087E+01  2.9896959E+04
 4.6749096E+01  2.9789229E+04
 4.6789104E+01  2.9467252E+04
 4.6829113E+01  2.9016285E+04
 4.6869122E+01  2.8552424E+04
 4.6909126E+01  2.8089508E+04
 4.6949135E+01  2.7758332E+04
 4.6989143E+01  2.7544656E+04
 4.7029152E+01  2.7492062E+04
 4.7069160E+01  2.7557598E+04
 4.7109165E+01  2.7725379E+04
 4.7149174E+01  2.7955617E+04
 4.7189182E+01  2.8150428E+04
 4.7229191E+01  2.8258139E+04
 4.7269199E+01  2.8238146E+04
 4.7309204E+01  2.8092314E+04
 4.7349213E+01  2.7907488E+04
 4.7389221E+01  2.7749369E+04
 4.7429230E+01  2.7692666E+04
 4.7469238E+01  2.7688094E+04
 4.7509243E+01  2.7662172E+04
 4.7549252E+01  2.7573188E+04
 4.7589260E+01  2.7382863E+04
 4.7629269E+01  2.7021676E+04
 4.7669277E+01  2.6551598E+04
 4.7709282E+01  2.6035584E+04
 4.7749290E+01  2.5504400E+04
 4.7789299E+01  2.4997270E+04
 4.7829308E+01  2.4617053E+04
 4.7869316E+01  2.4317348E+04
 4.7909321E+01  2.4103926E+04
 4.7949329E+01  2.4057268E+04
 4.7989338E+01  2.4099832E+04
 4.8029346E+01  2.4176371E+04
 4.8069355E+01  2.4347986E+04
 4.8109360E+01  2.4438514E+04
 4.8149368E+01  2.4608230E+04
 4.8189377E+01  2.4965291E+04
 4.8229385E+01  2.5237301E+04
 4.8269394E+01  2.5504723E+04
 4.8309399E+01  2.5838408E+04
 4.8349407E+01  2.6257080E+04
 4.8389416E+01  2.6696045E+04
 4.8429424E+01  2.7062809E+04
 4.8469433E+01  2.7363342E+04
 4.8509438E+01  2.7494428E+04
 4.8549446E+01  2.7197219E+04
 4.8589455E+01  2.6874584E+04
 4.8629463E+01  2.6383375E+04
 4.8669472E+01  2.5751416E+04
 4.8709476E+01  2.5105021E+04
 4.8749485E+01  2.4471600E+04
 4.8789494E+01  2.3751848E+04
 4.8829502E+01  2.3329227E+04
 4.8869511E+01  2.3023705E+04
 4.8909515E+01  2.2800604E+04
 4.8949524E+01  2.2606029E+04
 4.8989532E+01  2.2478766E+04
 4.9029541E+01  2.2370854E+04
 4.9069550E+01  2.2274250E+04
 4.9109554E+01  2.2334242E+04
 4.9149563E+01  2.2295682E+04
 4.9189571E+01  2.2336039E+04
 4.9229580E+01  2.2435078E+04
 4.9269588E+01  2.2602641E+04
 4.9309593E+01  2.2773627E+04
 4.9349602E+01  2.2921219E+04
 4.9389610E+01  2.3040096E+04
 4.9429619E+01  2.3090736E+04
 4.9469627E+01  2.3043529E+04
 4.9509632E+01  2.2868223E+04
 4.9549641E+01  2.2663695E+04
 4.9589649E+01  2.2434166E+04
 4.9629658E+01  2.2341320E+04
 4.9669666E+01  2.2164227E+04
 4.9709671E+01  2.1848613E+04
 4.9749680E+01  2.1652455E+04
 4.9789688E+01  2.1532309E+04
 4.9829697E+01  2.1388623E+04
 4.9869705E+01  2.1338961E+04
 4.9909710E+01  2.1405133E+04
 4.9949718E+01  2.1475246E+04
 4.9989727E+01  2.1713504E+04
 5.0029736E+01  2.1992074E+04
 5.0069744E+01  2.2330697E+04
 5.0109749E+01  2.2746539E+04
 5.0149757E+01  2.3246539E+04
 5.0189766E+01  2.3808738E+04
 5.0229774E+01  2.4363340E+04
 5.0269783E+01  2.4866701E+04
 5.0309788E+01  2.5293318E+04
 5.0349796E+01  2.5496572E+04
 5.0389805E+01  2.5547613E+04
 5.0429813E+01  2.5468451E+04
 5.0469822E+01  2.5291262E+04
 5.0509827E+01  2.5015600E+04
 5.0549835E+01  2.4787121E+04
 5.0589844E+01  2.4548668E+04
 5.0629852E+01  2.4462080E+04
 5.0669861E+01  2.4441783E+04
 5.0709866E+01  2.4509156E+04
 5.0749874E+01  2.4662121E+04
 5.0789883E+01  2.4833168E+04
 5.0829891E+01  2.5010934E+04
 5.0869900E+01  2.5140395E+04
 5.0909904E+01  2.5216924E+04
 5.0949913E+01  2.5317795E+04
 5.0989922E+01  2.5393238E+04
 5.1029930E+01  2.5554389E+04
 5.1069939E+01  2.5683576E+04
 5.1109943E+01  2.5758029E+04
 5.1149952E+01  2.5820795E+04
 5.1189960E+01  2.5726516E+04
 5.1229969E+01  2.5448596E+04
 5.1269978E+01  2.5044318E+04
 5.1309986E+01  2.4514906E+04
 5.1349991E+01  2.3928668E+04
 5.1389999E+01  2.3407941E+04
 5.1430008E+01  2.2907635E+04
 5.1470016E+01  2.2521533E+04
 5.1510025E+01  2.2219664E+04
 5.1550030E+01  2.1979961E+04
 5.1590038E+01  2.1825402E+04
 5.1630047E+01  2.1662904E+04
 5.1670055E+01  2.1663822E+04
 5.1710064E+01  2.1729725E+04
 5.1750069E+01  2.1745225E+04
 5.1790077E+01  2.1878242E+04
 5.1830086E+01  2.2085301E+04
 5.1870094E+01  2.2411891E+04
 5.1910103E+01  2.2715289E+04
 5.1950108E+01  2.3009705E+04
 5.1990116E+01  2.3424121E+04
 5.2030125E+01  2.3705896E+04
 5.2070133E+01  2.3991738E+04
 5.2110142E+01  2.4140367E+04
 5.2150146E+01  2.4177855E+04
 5.2190155E+01  2.3970332E+04
 5.2230164E+01  2.3783449E+04
 5.2270172E+01  2.3509736E+04
 5.2310181E+01  2.3241838E+04
 5.2350185E+01  2.2973652E+04
 5.2390194E+01  2.2847543E+04
 5.2430202E+01  2.2708701E+04
 5.2470211E+01  2.2673307E+04
 5.2510220E+01  2.2663475E+04
 5.2550224E+01  2.2652355E+04
 5.2590233E+01  2.2439664E+04
 5.2630241E+01  2.2531471E+04
 5.2670250E+01  2.2372225E+04
 5.2710258E+01  2.2174602E+04
 5.2750263E+01  2.2004180E+04
 5.2790272E+01  2.1871965E+04
 5.2830280E+01  2.1768887E+04
 5.2870289E+01  2.1656680E+04
 5.2910297E+01  2.1566121E+04
 5.2950302E+01  2.1491477E+04
 5.2990311E+01  2.1357951E+04
 5.3030319E+01  2.1239543E+04
 5.3070328E+01  2.1086977E+04
 5.3110336E+01  2.0867314E+04
 5.3150341E+01  2.0776594E+04
 5.3190350E+01  2.0659059E+04
 5.3230358E+01  2.0585945E+04
 5.3270367E+01  2.0574900E+04
 5.3310375E+01  2.0680623E+04
 5.3350380E+01  2.0762225E+04
 5.3390388E+01  2.0863586E+04
 5.3430397E+01  2.1003729E+04
 5.3470406E+01  2.1163672E+04
 5.3510414E+01  2.1327160E+04
 5.3550419E+01  2.1506865E+04
 5.3590427E+01  2.1734883E+04
 5.3630436E+01  2.1898365E+04
 5.3670444E+01  2.2158285E+04
 5.3710453E+01  2.2479221E+04
 5.3750458E+01  2.2617229E+04
 5.3790466E+01  2.2644469E+04
 5.3830475E+01  2.2621725E+04
 5.3870483E+01  2.2554645E+04
 5.3910492E+01  2.2291496E+04
 5.3950497E+01  2.1955094E+04
 5.3990505E+01  2.1621938E+04
 5.4030514E+01  2.1386234E+04
 5.4070522E+01  2.1106463E+04
 5.4110531E+01  2.0828672E+04
 5.4150536E+01  2.0630520E+04
 5.4190544E+01  2.0471008E+04
 5.4230553E+01  2.0434945E+04
 5.4270561E+01  2.0326061E+04
 5.4310570E+01  2.0233320E+04
 5.4350574E+01  2.0178396E+04
 5.4390583E+01  2.0065738E+04
 5.4430592E+01  1.9950287E+04
 5.4470600E+01  1.9886512E+04
 5.4510609E+01  1.9786438E+04
 5.4550613E+01  1.9769725E+04
 5.4590622E+01  1.9740271E+04
 5.4630630E+01  1.9634703E+04
 5.4670639E+01  1.9515430E+04
 5.4710648E+01  1.9440404E+04
 5.4750652E+01  1.9354664E+04
 5.4790661E+01  1.9175586E+04
 5.4830669E+01  1.9073838E+04
 5.4870678E+01  1.8983146E+04
 5.4910686E+01  1.8854826E+04
 5.4950691E+01  1.8980141E+04
 5.4990700E+01  1.8948086E+04
 5.5030708E+01  1.9021340E+04
 5.5070717E+01  1.9097178E+04
 5.5110725E+01  1.9112354E+04
 5.5150730E+01  1.9231721E+04
 5.5190739E+01  1.9440314E+04
 5.5230747E+01  1.9583152E+04
 5.5270756E+01  1.9600730E+04
 5.5310764E+01  1.9805684E+04
 5.5350769E+01  1.9982543E+04
 5.5390778E+01  2.0181518E+04
 5.5430786E+01  2.0283865E+04
 5.5470795E+01  2.0456238E+04
 5.5510803E+01  2.0442557E+04
 5.5550808E+01  2.0484803E+04
 5.5590816E+01  2.0434250E+04
 5.5630825E+01  2.0431922E+04
 5.5670834E+01  2.0358195E+04
 5.5710842E+01  2.0367027E+04
 5.5750847E+01  2.0412531E+04
 5.5790855E+01  2.0415742E+04
 5.5830864E+01  2.0519123E+04
 5.5870872E+01  2.0696199E+04
 5.5910881E+01  2.0861816E+04
 5.5950886E+01  2.0881539E+04
 5.5990894E+01  2.0997838E+04
 5.6030903E+01  2.1194258E+04
 5.6070911E+01  2.1212656E+04
 5.6110920E+01  2.1297426E+04
 5.6150925E+01  2.1512959E+04
 5.6190933E+01  2.1459332E+04
 5.6230942E+01  2.1595977E+04
 5.6270950E+01  2.1495119E+04
 5.6310959E+01  2.1437336E+04
 5.6350964E+01  2.1221828E+04
 5.6390972E+01  2.0899461E+04
 5.6430981E+01  2.0531477E+04
 5.6470989E+01  2.0248967E+04
 5.6510998E+01  2.0262438E+04
 5.6551003E+01  1.9808160E+04
 5.6591011E+01  1.9298504E+04
 5.6631020E+01  1.8994213E+04
 5.6671028E+01  1.8822891E+04
 5.6711037E+01  1.8709848E+04
 5.6751041E+01  1.8578588E+04
 5.6791050E+01  1.8523518E+04
 5.6831059E+01  1.8446285E+04
 5.6871067E+01  1.8102162E+04
 5.6911076E+01  1.8167238E+04
 5.6951080E+01  1.8217395E+04
 5.6991089E+01  1.8254879E+04
 5.7031097E+01  1.8232502E+04
 5.7071106E+01  1.8182463E+04
 5.7111115E+01  1.8019373E+04
 5.7151119E+01  1.8087410E+04
 5.7191128E+01  1.7894016E+04
 5.7231136E+01  1.7771674E+04
 5.7271145E+01  1.7548475E+04
 5.7311153E+01  1.7322467E+04
 5.7351158E+01  1.7035592E+04
 5.7391167E+01  1.6759812E+04
 5.7431175E+01  1.6524334E+04
 5.7471184E+01  1.6308129E+04
 5.7511192E+01  1.6028248E+04
 5.7551197E+01  1.5939259E+04
 5.7591206E+01  1.5445849E+04
 5.7631214E+01  1.4892242E+04
 5.7671223E+01  1.4320656E+04
 5.7711231E+01  1.4784570E+04
 5.7751236E+01  1.4793976E+04
 5.7791245E+01  1.4628148E+04
 5.7831253E+01  1.4437422E+04
 5.7871262E+01  1.4413846E+04
 5.7911270E+01  1.4817520E+04
 5.7951275E+01  1.4995668E+04
 5.7991283E+01  1.5013245E+04
 5.8031292E+01  1.5042025E+04
 5.8071301E+01  1.4718866E+04
 5.8111309E+01  1.4137574E+04
 5.8151314E+01  1.3951815E+04
 5.8191322E+01  1.3165341E+04
 5.8231331E+01  1.2943834E+04
 5.8271339E+01  1.1618528E+04
 5.8311348E+01  1.0198764E+04
 5.8351353E+01  8.1574658E+03
 5.8391361E+01  7.0179678E+03
 5.8431370E+01  6.7123384E+03
 5.8471378E+01  6.3393638E+03
 5.8511387E+01  4.8756543E+03
 5.8551392E+01  3.0319255E+03
 5.8591400E+01  1.3948092E+03
