Pt_bulk_ramp03-00907.tif: 2-theta Scan
2-Theta Angle (Degrees)

       1465
 2.0003892E-02  0.0000000E+00
 6.0011677E-02  0.0000000E+00
 1.0001946E-01  0.0000000E+00
 1.4002724E-01  0.0000000E+00
 1.8003502E-01  0.0000000E+00
 2.2004281E-01  0.0000000E+00
 2.6005059E-01  0.0000000E+00
 3.0005839E-01  0.0000000E+00
 3.4006616E-01  0.0000000E+00
 3.8007396E-01  0.0000000E+00
 4.2008173E-01  0.0000000E+00
 4.6008953E-01  0.0000000E+00
 5.0009733E-01  0.0000000E+00
 5.4010510E-01  0.0000000E+00
 5.8011287E-01  0.0000000E+00
 6.2012064E-01  0.0000000E+00
 6.6012847E-01  0.0000000E+00
 7.0013624E-01  0.0000000E+00
 7.4014401E-01  1.6192487E+04
 7.8015178E-01  1.8866826E+04
 8.2015961E-01  2.9685201E+04
 8.6016738E-01  4.8949281E+04
 9.0017515E-01  7.5198016E+04
 9.4018292E-01  8.9602406E+04
 9.8019075E-01  8.9848984E+04
 1.0201985E+00  8.4638453E+04
 1.0602063E+00  7.8373078E+04
 1.1002141E+00  7.3935703E+04
 1.1402218E+00  6.9618656E+04
 1.1802297E+00  6.5958289E+04
 1.2202375E+00  6.3072172E+04
 1.2602452E+00  6.0529348E+04
 1.3002530E+00  5.8457781E+04
 1.3402607E+00  5.6789625E+04
 1.3802686E+00  5.5277656E+04
 1.4202764E+00  5.4149520E+04
 1.4602841E+00  5.3141426E+04
 1.5002919E+00  5.2282703E+04
 1.5402998E+00  5.1591039E+04
 1.5803075E+00  5.0874293E+04
 1.6203153E+00  5.0178652E+04
 1.6603230E+00  4.9657652E+04
 1.7003309E+00  4.9438652E+04
 1.7403387E+00  4.9765566E+04
 1.7803464E+00  5.0186773E+04
 1.8203542E+00  4.9902961E+04
 1.8603621E+00  4.8893820E+04
 1.9003698E+00  4.7746301E+04
 1.9403776E+00  4.7268043E+04
 1.9803853E+00  4.7328430E+04
 2.0203931E+00  4.7715734E+04
 2.0604010E+00  4.8041973E+04
 2.1004088E+00  4.8063527E+04
 2.1404164E+00  4.7808766E+04
 2.1804242E+00  4.7574312E+04
 2.2204320E+00  4.7504379E+04
 2.2604399E+00  4.7650230E+04
 2.3004477E+00  4.7753969E+04
 2.3404555E+00  4.7955141E+04
 2.3804631E+00  4.8168781E+04
 2.4204710E+00  4.8385965E+04
 2.4604788E+00  4.8697355E+04
 2.5004866E+00  4.9114160E+04
 2.5404944E+00  4.9645039E+04
 2.5805020E+00  5.0023324E+04
 2.6205099E+00  5.0170484E+04
 2.6605177E+00  4.9894305E+04
 2.7005255E+00  4.9191375E+04
 2.7405334E+00  4.8305379E+04
 2.7805409E+00  4.7352652E+04
 2.8205488E+00  4.6630359E+04
 2.8605566E+00  4.6110684E+04
 2.9005644E+00  4.5612387E+04
 2.9405723E+00  4.5012414E+04
 2.9805801E+00  4.4058723E+04
 3.0205877E+00  4.2963465E+04
 3.0605955E+00  4.2088801E+04
 3.1006033E+00  4.1402715E+04
 3.1406112E+00  4.0858891E+04
 3.1806190E+00  4.0426016E+04
 3.2206266E+00  4.0077637E+04
 3.2606344E+00  3.9868504E+04
 3.3006423E+00  3.9822602E+04
 3.3406501E+00  3.9951324E+04
 3.3806579E+00  4.0253645E+04
 3.4206655E+00  4.0596785E+04
 3.4606733E+00  4.0749988E+04
 3.5006812E+00  4.0662785E+04
 3.5406890E+00  4.0523578E+04
 3.5806968E+00  4.0479250E+04
 3.6207047E+00  4.0508172E+04
 3.6607122E+00  4.0499148E+04
 3.7007201E+00  4.0428879E+04
 3.7407279E+00  4.0300793E+04
 3.7807357E+00  4.0119754E+04
 3.8207436E+00  3.9883488E+04
 3.8607512E+00  3.9710738E+04
 3.9007590E+00  3.9587773E+04
 3.9407668E+00  3.9484090E+04
 3.9807746E+00  3.9483922E+04
 4.0207825E+00  3.9605461E+04
 4.0607901E+00  3.9806008E+04
 4.1007981E+00  4.0069664E+04
 4.1408057E+00  4.0363125E+04
 4.1808133E+00  4.0709688E+04
 4.2208214E+00  4.1089320E+04
 4.2608290E+00  4.1537449E+04
 4.3008370E+00  4.2111812E+04
 4.3408446E+00  4.2836812E+04
 4.3808522E+00  4.3754918E+04
 4.4208603E+00  4.4858301E+04
 4.4608679E+00  4.6164469E+04
 4.5008759E+00  4.7688520E+04
 4.5408835E+00  4.9413680E+04
 4.5808916E+00  5.1373387E+04
 4.6208992E+00  5.3654000E+04
 4.6609068E+00  5.6314895E+04
 4.7009149E+00  5.9419141E+04
 4.7409225E+00  6.3136648E+04
 4.7809305E+00  6.7675023E+04
 4.8209381E+00  7.3361188E+04
 4.8609457E+00  8.0399414E+04
 4.9009538E+00  8.9280648E+04
 4.9409614E+00  1.0081739E+05
 4.9809694E+00  1.1575141E+05
 5.0209770E+00  1.3613416E+05
 5.0609846E+00  1.6462156E+05
 5.1009927E+00  2.0521531E+05
 5.1410003E+00  2.7008378E+05
 5.1810083E+00  3.8371719E+05
 5.2210159E+00  6.0755844E+05
 5.2610235E+00  1.0990259E+06
 5.3010316E+00  2.0237836E+06
 5.3410392E+00  3.1564838E+06
 5.3810472E+00  3.6773292E+06
 5.4210548E+00  3.6778622E+06
 5.4610624E+00  3.1333658E+06
 5.5010705E+00  2.0019555E+06
 5.5410781E+00  1.0497861E+06
 5.5810862E+00  5.6419794E+05
 5.6210938E+00  3.4913341E+05
 5.6611013E+00  2.4714241E+05
 5.7011094E+00  1.9692297E+05
 5.7411170E+00  1.7053730E+05
 5.7811251E+00  1.5734541E+05
 5.8211327E+00  1.5348606E+05
 5.8611407E+00  1.5691492E+05
 5.9011483E+00  1.6875331E+05
 5.9411559E+00  1.9163627E+05
 5.9811640E+00  2.3236827E+05
 6.0211716E+00  3.0779278E+05
 6.0611796E+00  4.4942584E+05
 6.1011872E+00  7.2117906E+05
 6.1411948E+00  1.1749525E+06
 6.1812029E+00  1.7142540E+06
 6.2212105E+00  2.0711586E+06
 6.2612185E+00  1.9722311E+06
 6.3012261E+00  1.4900945E+06
 6.3412337E+00  9.2490806E+05
 6.3812418E+00  5.2838156E+05
 6.4212494E+00  3.0547009E+05
 6.4612575E+00  1.9430191E+05
 6.5012650E+00  1.3669911E+05
 6.5412726E+00  1.0440275E+05
 6.5812807E+00  8.5300219E+04
 6.6212883E+00  7.2878844E+04
 6.6612964E+00  6.4323367E+04
 6.7013040E+00  5.8280859E+04
 6.7413116E+00  5.3735012E+04
 6.7813196E+00  5.0275309E+04
 6.8213272E+00  4.7578746E+04
 6.8613353E+00  4.5340926E+04
 6.9013429E+00  4.3395949E+04
 6.9413505E+00  4.1703172E+04
 6.9813585E+00  4.0199863E+04
 7.0213661E+00  3.9010738E+04
 7.0613742E+00  3.8030262E+04
 7.1013818E+00  3.7170859E+04
 7.1413898E+00  3.6457055E+04
 7.1813974E+00  3.5841566E+04
 7.2214050E+00  3.5312117E+04
 7.2614131E+00  3.4867066E+04
 7.3014207E+00  3.4502469E+04
 7.3414288E+00  3.4225660E+04
 7.3814363E+00  3.4033996E+04
 7.4214439E+00  3.3926102E+04
 7.4614520E+00  3.3839887E+04
 7.5014596E+00  3.3749211E+04
 7.5414677E+00  3.3692387E+04
 7.5814753E+00  3.3695988E+04
 7.6214828E+00  3.3758363E+04
 7.6614909E+00  3.3908449E+04
 7.7014985E+00  3.4157520E+04
 7.7415066E+00  3.4504039E+04
 7.7815142E+00  3.4874211E+04
 7.8215218E+00  3.5321336E+04
 7.8615298E+00  3.5844969E+04
 7.9015374E+00  3.6465125E+04
 7.9415455E+00  3.7257883E+04
 7.9815531E+00  3.8163727E+04
 8.0215607E+00  3.9165043E+04
 8.0615683E+00  4.0335383E+04
 8.1015768E+00  4.1709840E+04
 8.1415844E+00  4.3371477E+04
 8.1815920E+00  4.5402156E+04
 8.2215996E+00  4.7848293E+04
 8.2616072E+00  5.0854652E+04
 8.3016157E+00  5.4627504E+04
 8.3416233E+00  5.9420715E+04
 8.3816309E+00  6.5633898E+04
 8.4216385E+00  7.3906070E+04
 8.4616461E+00  8.5106391E+04
 8.5016546E+00  1.0096381E+05
 8.5416622E+00  1.2483166E+05
 8.5816698E+00  1.6298247E+05
 8.6216774E+00  2.2995206E+05
 8.6616850E+00  3.5561041E+05
 8.7016935E+00  5.8223288E+05
 8.7417011E+00  9.3767019E+05
 8.7817087E+00  1.3189478E+06
 8.8217163E+00  1.5223521E+06
 8.8617239E+00  1.3976045E+06
 8.9017324E+00  1.0411782E+06
 8.9417400E+00  6.5979094E+05
 8.9817476E+00  3.9210912E+05
 9.0217552E+00  2.4099058E+05
 9.0617638E+00  1.6096930E+05
 9.1017714E+00  1.1879944E+05
 9.1417789E+00  9.5196156E+04
 9.1817865E+00  8.0980734E+04
 9.2217941E+00  7.2116102E+04
 9.2618027E+00  6.6262875E+04
 9.3018103E+00  6.2287672E+04
 9.3418179E+00  5.9671605E+04
 9.3818254E+00  5.7947535E+04
 9.4218330E+00  5.6870852E+04
 9.4618416E+00  5.6408680E+04
 9.5018492E+00  5.6397031E+04
 9.5418568E+00  5.6794801E+04
 9.5818644E+00  5.7623734E+04
 9.6218719E+00  5.8914656E+04
 9.6618805E+00  6.0754238E+04
 9.7018881E+00  6.3177805E+04
 9.7418957E+00  6.6387336E+04
 9.7819033E+00  7.0480570E+04
 9.8219109E+00  7.5643938E+04
 9.8619194E+00  8.2361648E+04
 9.9019270E+00  9.1050055E+04
 9.9419346E+00  1.0284713E+05
 9.9819422E+00  1.1907345E+05
 1.0021950E+01  1.4167675E+05
 1.0061958E+01  1.7508830E+05
 1.0101966E+01  2.2783325E+05
 1.0141973E+01  3.1563481E+05
 1.0181981E+01  4.7012288E+05
 1.0221989E+01  7.3615712E+05
 1.0261997E+01  1.1246829E+06
 1.0302005E+01  1.5450292E+06
 1.0342012E+01  1.7744110E+06
 1.0382020E+01  1.6711970E+06
 1.0422028E+01  1.2962298E+06
 1.0462036E+01  8.7479269E+05
 1.0502044E+01  5.5604975E+05
 1.0542051E+01  3.6780431E+05
 1.0582059E+01  2.7437109E+05
 1.0622066E+01  2.4242509E+05
 1.0662075E+01  2.6206234E+05
 1.0702083E+01  3.3443444E+05
 1.0742090E+01  4.5031856E+05
 1.0782098E+01  5.5599500E+05
 1.0822105E+01  5.7897269E+05
 1.0862114E+01  4.9493016E+05
 1.0902122E+01  3.5670250E+05
 1.0942129E+01  2.3293059E+05
 1.0982137E+01  1.5152964E+05
 1.1022144E+01  1.0626003E+05
 1.1062153E+01  8.1481898E+04
 1.1102160E+01  6.7345445E+04
 1.1142168E+01  5.8735453E+04
 1.1182176E+01  5.3010633E+04
 1.1222183E+01  4.8977059E+04
 1.1262192E+01  4.6015668E+04
 1.1302199E+01  4.3759016E+04
 1.1342207E+01  4.1995980E+04
 1.1382215E+01  4.0599930E+04
 1.1422222E+01  3.9451875E+04
 1.1462231E+01  3.8526871E+04
 1.1502238E+01  3.7749305E+04
 1.1542246E+01  3.7036574E+04
 1.1582253E+01  3.6433008E+04
 1.1622262E+01  3.5974250E+04
 1.1662270E+01  3.5602059E+04
 1.1702277E+01  3.5351191E+04
 1.1742285E+01  3.5216305E+04
 1.1782292E+01  3.5204219E+04
 1.1822301E+01  3.5340504E+04
 1.1862309E+01  3.5607617E+04
 1.1902316E+01  3.6068363E+04
 1.1942324E+01  3.6849430E+04
 1.1982331E+01  3.8104258E+04
 1.2022340E+01  4.0155934E+04
 1.2062347E+01  4.1567004E+04
 1.2102355E+01  4.3397453E+04
 1.2142363E+01  4.6167656E+04
 1.2182370E+01  5.0717570E+04
 1.2222379E+01  5.7444309E+04
 1.2262386E+01  6.7860992E+04
 1.2302394E+01  8.4271039E+04
 1.2342402E+01  1.1019420E+05
 1.2382409E+01  1.4738966E+05
 1.2422418E+01  1.9018439E+05
 1.2462425E+01  2.2279748E+05
 1.2502433E+01  2.2710178E+05
 1.2542440E+01  2.0079311E+05
 1.2582448E+01  1.5832684E+05
 1.2622457E+01  1.1823916E+05
 1.2662464E+01  8.9258398E+04
 1.2702472E+01  7.0888453E+04
 1.2742479E+01  6.0037711E+04
 1.2782487E+01  5.3786148E+04
 1.2822495E+01  5.0267562E+04
 1.2862503E+01  4.8513316E+04
 1.2902511E+01  4.7884199E+04
 1.2942518E+01  4.8088043E+04
 1.2982526E+01  4.8967711E+04
 1.3022534E+01  5.0456824E+04
 1.3062542E+01  5.2613938E+04
 1.3102550E+01  5.5553098E+04
 1.3142557E+01  5.9406992E+04
 1.3182565E+01  6.4463281E+04
 1.3222573E+01  7.1138188E+04
 1.3262581E+01  8.0095289E+04
 1.3302588E+01  9.2531297E+04
 1.3342596E+01  1.1042152E+05
 1.3382604E+01  1.3778088E+05
 1.3422612E+01  1.8190022E+05
 1.3462620E+01  2.5483311E+05
 1.3502627E+01  3.6909450E+05
 1.3542635E+01  5.1918619E+05
 1.3582643E+01  6.5807888E+05
 1.3622651E+01  7.1838550E+05
 1.3662659E+01  6.6883938E+05
 1.3702666E+01  5.5102244E+05
 1.3742674E+01  4.3496009E+05
 1.3782681E+01  3.6937628E+05
 1.3822690E+01  3.6934466E+05
 1.3862698E+01  4.3107469E+05
 1.3902705E+01  5.3053444E+05
 1.3942713E+01  6.1473500E+05
 1.3982720E+01  6.2664500E+05
 1.4022729E+01  5.5021662E+05
 1.4062737E+01  4.2500597E+05
 1.4102744E+01  3.0222709E+05
 1.4142752E+01  2.1062486E+05
 1.4182760E+01  1.5084573E+05
 1.4222768E+01  1.1383426E+05
 1.4262775E+01  9.1147734E+04
 1.4302783E+01  7.6907133E+04
 1.4342791E+01  6.7580312E+04
 1.4382799E+01  6.1265707E+04
 1.4422807E+01  5.6883641E+04
 1.4462814E+01  5.3777074E+04
 1.4502822E+01  5.1555359E+04
 1.4542830E+01  5.0015828E+04
 1.4582838E+01  4.9004680E+04
 1.4622846E+01  4.8421020E+04
 1.4662853E+01  4.8262629E+04
 1.4702861E+01  4.8540543E+04
 1.4742868E+01  4.9234922E+04
 1.4782877E+01  5.0456645E+04
 1.4822885E+01  5.2278441E+04
 1.4862892E+01  5.4854508E+04
 1.4902900E+01  5.8454312E+04
 1.4942907E+01  6.3413934E+04
 1.4982916E+01  7.0384172E+04
 1.5022923E+01  8.0465039E+04
 1.5062931E+01  9.5532812E+04
 1.5102939E+01  1.1913891E+05
 1.5142946E+01  1.5690909E+05
 1.5182955E+01  2.1594973E+05
 1.5222962E+01  2.9623019E+05
 1.5262970E+01  3.7914891E+05
 1.5302978E+01  4.2839512E+05
 1.5342985E+01  4.1611109E+05
 1.5382994E+01  3.5030531E+05
 1.5423001E+01  2.6509628E+05
 1.5463009E+01  1.9096398E+05
 1.5503016E+01  1.3876039E+05
 1.5543024E+01  1.0571736E+05
 1.5583033E+01  8.5798625E+04
 1.5623040E+01  7.4027859E+04
 1.5663048E+01  6.7206891E+04
 1.5703055E+01  6.3578203E+04
 1.5743063E+01  6.2220188E+04
 1.5783072E+01  6.2691418E+04
 1.5823079E+01  6.4880332E+04
 1.5863087E+01  6.8964148E+04
 1.5903094E+01  7.5415461E+04
 1.5943102E+01  8.5136781E+04
 1.5983110E+01  9.9737617E+04
 1.6023117E+01  1.2209634E+05
 1.6063126E+01  1.5684527E+05
 1.6103134E+01  2.0955814E+05
 1.6143141E+01  2.8208909E+05
 1.6183149E+01  3.6235925E+05
 1.6223156E+01  4.2073862E+05
 1.6263165E+01  4.2733034E+05
 1.6303173E+01  3.7786072E+05
 1.6343180E+01  2.9783800E+05
 1.6383188E+01  2.1895742E+05
 1.6423195E+01  1.5788741E+05
 1.6463203E+01  1.1633593E+05
 1.6503212E+01  8.9552883E+04
 1.6543219E+01  7.2376461E+04
 1.6583227E+01  6.1177809E+04
 1.6623234E+01  5.3703176E+04
 1.6663242E+01  4.8568418E+04
 1.6703251E+01  4.4895219E+04
 1.6743258E+01  4.2230414E+04
 1.6783266E+01  4.0259789E+04
 1.6823273E+01  3.8832973E+04
 1.6863281E+01  3.7771355E+04
 1.6903290E+01  3.6964258E+04
 1.6943296E+01  3.6381012E+04
 1.6983305E+01  3.6005363E+04
 1.7023312E+01  3.5809965E+04
 1.7063320E+01  3.5764750E+04
 1.7103329E+01  3.5930547E+04
 1.7143335E+01  3.6241793E+04
 1.7183344E+01  3.6740254E+04
 1.7223351E+01  3.7486172E+04
 1.7263359E+01  3.8524059E+04
 1.7303368E+01  3.9959227E+04
 1.7343374E+01  4.1885145E+04
 1.7383383E+01  4.4530387E+04
 1.7423389E+01  4.8262059E+04
 1.7463398E+01  5.3660973E+04
 1.7503407E+01  6.1836098E+04
 1.7543413E+01  7.4242930E+04
 1.7583422E+01  9.2035242E+04
 1.7623428E+01  1.1387883E+05
 1.7663437E+01  1.3375664E+05
 1.7703445E+01  1.4324734E+05
 1.7743452E+01  1.3792264E+05
 1.7783461E+01  1.2128631E+05
 1.7823467E+01  1.0133339E+05
 1.7863476E+01  8.4348422E+04
 1.7903484E+01  7.2565602E+04
 1.7943491E+01  6.5558062E+04
 1.7983500E+01  6.2188906E+04
 1.8023508E+01  6.1535426E+04
 1.8063515E+01  6.3074875E+04
 1.8103523E+01  6.6463188E+04
 1.8143530E+01  7.1862727E+04
 1.8183538E+01  7.9784602E+04
 1.8223547E+01  9.1163352E+04
 1.8263554E+01  1.0767175E+05
 1.8303562E+01  1.3226016E+05
 1.8343569E+01  1.6924675E+05
 1.8383577E+01  2.2310342E+05
 1.8423586E+01  2.9319544E+05
 1.8463593E+01  3.6603516E+05
 1.8503601E+01  4.1670666E+05
 1.8543608E+01  4.2528575E+05
 1.8583616E+01  3.9533250E+05
 1.8623625E+01  3.5165038E+05
 1.8663631E+01  3.1984719E+05
 1.8703640E+01  3.0917841E+05
 1.8743647E+01  3.0967975E+05
 1.8783655E+01  3.0226347E+05
 1.8823664E+01  2.7462144E+05
 1.8863670E+01  2.3015173E+05
 1.8903679E+01  1.8194552E+05
 1.8943686E+01  1.4077345E+05
 1.8983694E+01  1.1036095E+05
 1.9023703E+01  8.9482016E+04
 1.9063709E+01  7.5556406E+04
 1.9103718E+01  6.6267062E+04
 1.9143724E+01  6.0019703E+04
 1.9183733E+01  5.5810832E+04
 1.9223742E+01  5.2975461E+04
 1.9263748E+01  5.1138832E+04
 1.9303757E+01  5.0112086E+04
 1.9343763E+01  4.9844703E+04
 1.9383772E+01  5.0286543E+04
 1.9423780E+01  5.1525625E+04
 1.9463787E+01  5.3735895E+04
 1.9503796E+01  5.7197086E+04
 1.9543802E+01  6.2417191E+04
 1.9583811E+01  7.0187461E+04
 1.9623819E+01  8.1535484E+04
 1.9663826E+01  9.7381352E+04
 1.9703835E+01  1.1738585E+05
 1.9743841E+01  1.3803777E+05
 1.9783850E+01  1.5260067E+05
 1.9823858E+01  1.5487333E+05
 1.9863865E+01  1.4375503E+05
 1.9903873E+01  1.2434580E+05
 1.9943880E+01  1.0360316E+05
 1.9983889E+01  8.6076367E+04
 2.0023897E+01  7.3278023E+04
 2.0063904E+01  6.4729301E+04
 2.0103912E+01  5.9479305E+04
 2.0143919E+01  5.6794246E+04
 2.0183928E+01  5.6113062E+04
 2.0223936E+01  5.7200855E+04
 2.0263943E+01  6.0191641E+04
 2.0303951E+01  6.5501676E+04
 2.0343958E+01  7.4037477E+04
 2.0383966E+01  8.7120445E+04
 2.0423975E+01  1.0599721E+05
 2.0463982E+01  1.2947698E+05
 2.0503990E+01  1.5259717E+05
 2.0543997E+01  1.6814031E+05
 2.0584005E+01  1.7200823E+05
 2.0624014E+01  1.6735248E+05
 2.0664021E+01  1.6160300E+05
 2.0704029E+01  1.5970122E+05
 2.0744036E+01  1.5991484E+05
 2.0784044E+01  1.5640083E+05
 2.0824053E+01  1.4471572E+05
 2.0864059E+01  1.2587982E+05
 2.0904068E+01  1.0477902E+05
 2.0944075E+01  8.5796641E+04
 2.0984083E+01  7.0982125E+04
 2.1024092E+01  6.0287262E+04
 2.1064098E+01  5.2784270E+04
 2.1104107E+01  4.7585547E+04
 2.1144114E+01  4.3994879E+04
 2.1184122E+01  4.1529172E+04
 2.1224131E+01  3.9857125E+04
 2.1264137E+01  3.8761305E+04
 2.1304146E+01  3.8105098E+04
 2.1344152E+01  3.7874785E+04
 2.1384161E+01  3.8021051E+04
 2.1424170E+01  3.8543719E+04
 2.1464176E+01  3.9594516E+04
 2.1504185E+01  4.1360688E+04
 2.1544191E+01  4.4185402E+04
 2.1584200E+01  4.8340805E+04
 2.1624208E+01  5.3825988E+04
 2.1664215E+01  5.9733281E+04
 2.1704224E+01  6.4149844E+04
 2.1744230E+01  6.5308016E+04
 2.1784239E+01  6.3041582E+04
 2.1824247E+01  5.8844520E+04
 2.1864254E+01  5.4717395E+04
 2.1904263E+01  5.1848426E+04
 2.1944269E+01  5.0662324E+04
 2.1984278E+01  5.1094820E+04
 2.2024286E+01  5.3054012E+04
 2.2064293E+01  5.6566543E+04
 2.2104301E+01  6.1884082E+04
 2.2144308E+01  6.9583297E+04
 2.2184317E+01  8.0537430E+04
 2.2224325E+01  9.5988719E+04
 2.2264332E+01  1.1689209E+05
 2.2304340E+01  1.4233594E+05
 2.2344347E+01  1.6799477E+05
 2.2384356E+01  1.8683089E+05
 2.2424364E+01  1.9329195E+05
 2.2464371E+01  1.8780531E+05
 2.2504379E+01  1.7630594E+05
 2.2544386E+01  1.6478945E+05
 2.2584394E+01  1.5493619E+05
 2.2624403E+01  1.4428892E+05
 2.2664410E+01  1.3049655E+05
 2.2704418E+01  1.1389077E+05
 2.2744425E+01  9.7094680E+04
 2.2784433E+01  8.2500797E+04
 2.2824442E+01  7.1175438E+04
 2.2864449E+01  6.3007234E+04
 2.2904457E+01  5.7415953E+04
 2.2944464E+01  5.3766652E+04
 2.2984472E+01  5.1617789E+04
 2.3024481E+01  5.0683551E+04
 2.3064487E+01  5.0750383E+04
 2.3104496E+01  5.1771551E+04
 2.3144505E+01  5.3830344E+04
 2.3184511E+01  5.7168785E+04
 2.3224520E+01  6.2184672E+04
 2.3264526E+01  6.9606078E+04
 2.3304535E+01  8.0476812E+04
 2.3344543E+01  9.5722195E+04
 2.3384550E+01  1.1505166E+05
 2.3424559E+01  1.3551008E+05
 2.3464565E+01  1.5096169E+05
 2.3504574E+01  1.5543488E+05
 2.3544582E+01  1.4745872E+05
 2.3584589E+01  1.3113420E+05
 2.3624598E+01  1.1268855E+05
 2.3664604E+01  9.6824148E+04
 2.3704613E+01  8.5395453E+04
 2.3744621E+01  7.8449328E+04
 2.3784628E+01  7.5490797E+04
 2.3824636E+01  7.6164297E+04
 2.3864643E+01  8.0468977E+04
 2.3904652E+01  8.8899367E+04
 2.3944660E+01  1.0235807E+05
 2.3984667E+01  1.2135953E+05
 2.4024675E+01  1.4453497E+05
 2.4064682E+01  1.6699520E+05
 2.4104691E+01  1.8107931E+05
 2.4144699E+01  1.8073677E+05
 2.4184706E+01  1.6589742E+05
 2.4224714E+01  1.4236662E+05
 2.4264721E+01  1.1736862E+05
 2.4304729E+01  9.5709352E+04
 2.4344738E+01  7.8803391E+04
 2.4384745E+01  6.6298938E+04
 2.4424753E+01  5.7266508E+04
 2.4464760E+01  5.0774848E+04
 2.4504768E+01  4.6050789E+04
 2.4544777E+01  4.2614730E+04
 2.4584784E+01  4.0072582E+04
 2.4624792E+01  3.8184809E+04
 2.4664799E+01  3.6788691E+04
 2.4704807E+01  3.5792078E+04
 2.4744816E+01  3.5095512E+04
 2.4784822E+01  3.4648285E+04
 2.4824831E+01  3.4450359E+04
 2.4864838E+01  3.4525047E+04
 2.4904846E+01  3.4880812E+04
 2.4944855E+01  3.5571691E+04
 2.4984861E+01  3.6569305E+04
 2.5024870E+01  3.7834867E+04
 2.5064877E+01  3.9163531E+04
 2.5104885E+01  4.0221137E+04
 2.5144894E+01  4.0738109E+04
 2.5184900E+01  4.0661391E+04
 2.5224909E+01  4.0175672E+04
 2.5264915E+01  3.9639633E+04
 2.5304924E+01  3.9403008E+04
 2.5344933E+01  3.9626578E+04
 2.5384939E+01  4.0471723E+04
 2.5424948E+01  4.2050137E+04
 2.5464954E+01  4.4473922E+04
 2.5504963E+01  4.7956469E+04
 2.5544971E+01  5.2823633E+04
 2.5584978E+01  5.9360602E+04
 2.5624987E+01  6.7579609E+04
 2.5664993E+01  7.6867391E+04
 2.5705002E+01  8.6075883E+04
 2.5745010E+01  9.4117172E+04
 2.5785017E+01  1.0088180E+05
 2.5825026E+01  1.0679513E+05
 2.5865032E+01  1.1159479E+05
 2.5905041E+01  1.1352893E+05
 2.5945049E+01  1.1049343E+05
 2.5985056E+01  1.0215830E+05
 2.6025064E+01  9.0548766E+04
 2.6065071E+01  7.8391234E+04
 2.6105080E+01  6.7743516E+04
 2.6145088E+01  5.9414254E+04
 2.6185095E+01  5.3348934E+04
 2.6225103E+01  4.9143551E+04
 2.6265110E+01  4.6446945E+04
 2.6305119E+01  4.4925922E+04
 2.6345127E+01  4.4411160E+04
 2.6385134E+01  4.4837598E+04
 2.6425142E+01  4.6205094E+04
 2.6465149E+01  4.8656758E+04
 2.6505157E+01  5.2415930E+04
 2.6545166E+01  5.7562551E+04
 2.6585173E+01  6.3856852E+04
 2.6625181E+01  7.0303789E+04
 2.6665188E+01  7.5158227E+04
 2.6705196E+01  7.6877742E+04
 2.6745205E+01  7.5014859E+04
 2.6785212E+01  7.0584562E+04
 2.6825220E+01  6.5291285E+04
 2.6865227E+01  6.0686656E+04
 2.6905235E+01  5.7528086E+04
 2.6945244E+01  5.6125195E+04
 2.6985250E+01  5.6607941E+04
 2.7025259E+01  5.9079012E+04
 2.7065266E+01  6.3836805E+04
 2.7105274E+01  7.1136719E+04
 2.7145283E+01  8.0739234E+04
 2.7185289E+01  9.1364266E+04
 2.7225298E+01  1.0054581E+05
 2.7265305E+01  1.0579279E+05
 2.7305313E+01  1.0610222E+05
 2.7345322E+01  1.0251554E+05
 2.7385328E+01  9.6840016E+04
 2.7425337E+01  9.0163820E+04
 2.7465343E+01  8.2693680E+04
 2.7505352E+01  7.4624312E+04
 2.7545361E+01  6.6520391E+04
 2.7585367E+01  5.9171066E+04
 2.7625376E+01  5.3163742E+04
 2.7665382E+01  4.8567512E+04
 2.7705391E+01  4.5211184E+04
 2.7745399E+01  4.2903496E+04
 2.7785406E+01  4.1437430E+04
 2.7825415E+01  4.0705727E+04
 2.7865421E+01  4.0612805E+04
 2.7905430E+01  4.1149160E+04
 2.7945438E+01  4.2347164E+04
 2.7985445E+01  4.4296680E+04
 2.8025454E+01  4.7013621E+04
 2.8065460E+01  5.0294586E+04
 2.8105469E+01  5.3628219E+04
 2.8145477E+01  5.6198219E+04
 2.8185484E+01  5.7296254E+04
 2.8225492E+01  5.6868320E+04
 2.8265501E+01  5.5491805E+04
 2.8305508E+01  5.4050301E+04
 2.8345516E+01  5.3251207E+04
 2.8385523E+01  5.3564008E+04
 2.8425531E+01  5.5253176E+04
 2.8465540E+01  5.8606172E+04
 2.8505547E+01  6.3912250E+04
 2.8545555E+01  7.1408250E+04
 2.8585562E+01  8.0997984E+04
 2.8625570E+01  9.1738352E+04
 2.8665579E+01  1.0164922E+05
 2.8705585E+01  1.0858623E+05
 2.8745594E+01  1.1141061E+05
 2.8785601E+01  1.1050965E+05
 2.8825609E+01  1.0690995E+05
 2.8865618E+01  1.0125913E+05
 2.8905624E+01  9.3765828E+04
 2.8945633E+01  8.4766625E+04
 2.8985640E+01  7.5178500E+04
 2.9025648E+01  6.6167258E+04
 2.9065657E+01  5.8500930E+04
 2.9105663E+01  5.2408270E+04
 2.9145672E+01  4.7764359E+04
 2.9185678E+01  4.4376500E+04
 2.9225687E+01  4.1991477E+04
 2.9265696E+01  4.0426250E+04
 2.9305702E+01  3.9608410E+04
 2.9345711E+01  3.9526742E+04
 2.9385717E+01  4.0205715E+04
 2.9425726E+01  4.1663953E+04
 2.9465734E+01  4.3839098E+04
 2.9505741E+01  4.6315055E+04
 2.9545750E+01  4.8390324E+04
 2.9585756E+01  4.9342668E+04
 2.9625765E+01  4.8789141E+04
 2.9665773E+01  4.7107895E+04
 2.9705780E+01  4.5011727E+04
 2.9745789E+01  4.3220246E+04
 2.9785795E+01  4.2168953E+04
 2.9825804E+01  4.2016395E+04
 2.9865812E+01  4.2833188E+04
 2.9905819E+01  4.4607969E+04
 2.9945827E+01  4.7294785E+04
 2.9985834E+01  5.0545031E+04
 3.0025843E+01  5.3607977E+04
 3.0065851E+01  5.5502617E+04
 3.0105858E+01  5.5574359E+04
 3.0145866E+01  5.3700586E+04
 3.0185873E+01  5.0354211E+04
 3.0225882E+01  4.6419324E+04
 3.0265890E+01  4.2638812E+04
 3.0305897E+01  3.9411480E+04
 3.0345905E+01  3.6849770E+04
 3.0385912E+01  3.4922363E+04
 3.0425920E+01  3.3530766E+04
 3.0465929E+01  3.2568826E+04
 3.0505936E+01  3.1972496E+04
 3.0545944E+01  3.1692438E+04
 3.0585951E+01  3.1715000E+04
 3.0625959E+01  3.2026287E+04
 3.0665968E+01  3.2677824E+04
 3.0705975E+01  3.3699898E+04
 3.0745983E+01  3.5135391E+04
 3.0785990E+01  3.7031594E+04
 3.0825998E+01  3.9295285E+04
 3.0866007E+01  4.1591527E+04
 3.0906013E+01  4.3427504E+04
 3.0946022E+01  4.4431027E+04
 3.0986029E+01  4.4552316E+04
 3.1026037E+01  4.4083188E+04
 3.1066046E+01  4.3617438E+04
 3.1106052E+01  4.3641938E+04
 3.1146061E+01  4.4453867E+04
 3.1186068E+01  4.6295133E+04
 3.1226076E+01  4.9375906E+04
 3.1266085E+01  5.3751434E+04
 3.1306091E+01  5.9313223E+04
 3.1346100E+01  6.5405492E+04
 3.1386106E+01  7.0817703E+04
 3.1426115E+01  7.4215141E+04
 3.1466124E+01  7.4964742E+04
 3.1506130E+01  7.3313016E+04
 3.1546139E+01  7.0012234E+04
 3.1586145E+01  6.5760594E+04
 3.1626154E+01  6.1096000E+04
 3.1666162E+01  5.6411441E+04
 3.1706169E+01  5.2106637E+04
 3.1746178E+01  4.8456305E+04
 3.1786184E+01  4.5622059E+04
 3.1826193E+01  4.3699375E+04
 3.1866201E+01  4.2634098E+04
 3.1906208E+01  4.2339977E+04
 3.1946217E+01  4.2823488E+04
 3.1986223E+01  4.4155719E+04
 3.2026234E+01  4.6381434E+04
 3.2066238E+01  4.9516859E+04
 3.2106247E+01  5.3427191E+04
 3.2146255E+01  5.7635613E+04
 3.2186264E+01  6.1226656E+04
 3.2226273E+01  6.3237738E+04
 3.2266277E+01  6.3110000E+04
 3.2306286E+01  6.1206828E+04
 3.2346294E+01  5.8330840E+04
 3.2386303E+01  5.5475234E+04
 3.2426311E+01  5.3403109E+04
 3.2466316E+01  5.2528199E+04
 3.2506325E+01  5.3002035E+04
 3.2546333E+01  5.4826871E+04
 3.2586342E+01  5.7845477E+04
 3.2626350E+01  6.1461023E+04
 3.2666355E+01  6.4766340E+04
 3.2706364E+01  6.6775969E+04
 3.2746372E+01  6.6922094E+04
 3.2786381E+01  6.5254227E+04
 3.2826389E+01  6.2192285E+04
 3.2866394E+01  5.8294387E+04
 3.2906403E+01  5.3932934E+04
 3.2946411E+01  4.9503359E+04
 3.2986420E+01  4.5384059E+04
 3.3026428E+01  4.1775844E+04
 3.3066433E+01  3.8756652E+04
 3.3106441E+01  3.6338602E+04
 3.3146450E+01  3.4447664E+04
 3.3186459E+01  3.3016199E+04
 3.3226467E+01  3.1910611E+04
 3.3266472E+01  3.1088172E+04
 3.3306480E+01  3.0512355E+04
 3.3346489E+01  3.0161246E+04
 3.3386497E+01  2.9961096E+04
 3.3426506E+01  2.9943443E+04
 3.3466511E+01  3.0075785E+04
 3.3506519E+01  3.0392734E+04
 3.3546528E+01  3.0924932E+04
 3.3586536E+01  3.1649969E+04
 3.3626545E+01  3.2636689E+04
 3.3666550E+01  3.3972113E+04
 3.3706558E+01  3.5720766E+04
 3.3746567E+01  3.8001785E+04
 3.3786575E+01  4.0882957E+04
 3.3826584E+01  4.4323062E+04
 3.3866589E+01  4.8217852E+04
 3.3906597E+01  5.2191047E+04
 3.3946606E+01  5.5762750E+04
 3.3986614E+01  5.8594980E+04
 3.4026623E+01  6.0327152E+04
 3.4066628E+01  6.0714141E+04
 3.4106636E+01  5.9538477E+04
 3.4146645E+01  5.6840426E+04
 3.4186653E+01  5.3101066E+04
 3.4226662E+01  4.9024625E+04
 3.4266666E+01  4.5278945E+04
 3.4306675E+01  4.2158625E+04
 3.4346684E+01  3.9797754E+04
 3.4386692E+01  3.8164371E+04
 3.4426701E+01  3.7193605E+04
 3.4466705E+01  3.6832797E+04
 3.4506714E+01  3.7050766E+04
 3.4546722E+01  3.7787570E+04
 3.4586731E+01  3.8872008E+04
 3.4626740E+01  4.0038754E+04
 3.4666744E+01  4.0892156E+04
 3.4706753E+01  4.1126293E+04
 3.4746761E+01  4.0634816E+04
 3.4786770E+01  3.9614855E+04
 3.4826778E+01  3.8407066E+04
 3.4866783E+01  3.7323117E+04
 3.4906792E+01  3.6586102E+04
 3.4946800E+01  3.6370723E+04
 3.4986809E+01  3.6644730E+04
 3.5026817E+01  3.7346223E+04
 3.5066822E+01  3.8180121E+04
 3.5106831E+01  3.8817547E+04
 3.5146839E+01  3.8891855E+04
 3.5186848E+01  3.8222531E+04
 3.5226856E+01  3.6897703E+04
 3.5266861E+01  3.5202016E+04
 3.5306870E+01  3.3453504E+04
 3.5346878E+01  3.1929408E+04
 3.5386887E+01  3.0678057E+04
 3.5426895E+01  2.9711217E+04
 3.5466900E+01  2.8991332E+04
 3.5506908E+01  2.8515732E+04
 3.5546917E+01  2.8220904E+04
 3.5586926E+01  2.8174809E+04
 3.5626934E+01  2.8295449E+04
 3.5666939E+01  2.8585824E+04
 3.5706947E+01  2.9055715E+04
 3.5746956E+01  2.9712658E+04
 3.5786964E+01  3.0556627E+04
 3.5826973E+01  3.1475625E+04
 3.5866978E+01  3.2394852E+04
 3.5906986E+01  3.3325895E+04
 3.5946995E+01  3.4291824E+04
 3.5987003E+01  3.5445211E+04
 3.6027012E+01  3.6903277E+04
 3.6067017E+01  3.8832207E+04
 3.6107025E+01  4.1365574E+04
 3.6147034E+01  4.4590309E+04
 3.6187042E+01  4.8375109E+04
 3.6227051E+01  5.2407973E+04
 3.6267056E+01  5.6087066E+04
 3.6307064E+01  5.8727984E+04
 3.6347073E+01  5.9887621E+04
 3.6387081E+01  5.9412793E+04
 3.6427090E+01  5.7587195E+04
 3.6467094E+01  5.4829531E+04
 3.6507103E+01  5.1526316E+04
 3.6547112E+01  4.8054512E+04
 3.6587120E+01  4.4790199E+04
 3.6627129E+01  4.1966805E+04
 3.6667133E+01  3.9727520E+04
 3.6707142E+01  3.8067035E+04
 3.6747150E+01  3.6914910E+04
 3.6787159E+01  3.6301434E+04
 3.6827168E+01  3.6221246E+04
 3.6867172E+01  3.6622695E+04
 3.6907181E+01  3.7402750E+04
 3.6947189E+01  3.8356051E+04
 3.6987198E+01  3.9269012E+04
 3.7027206E+01  3.9819941E+04
 3.7067211E+01  3.9862703E+04
 3.7107220E+01  3.9523180E+04
 3.7147228E+01  3.9067777E+04
 3.7187237E+01  3.8765039E+04
 3.7227245E+01  3.8872164E+04
 3.7267250E+01  3.9487895E+04
 3.7307259E+01  4.0686238E+04
 3.7347267E+01  4.2289598E+04
 3.7387276E+01  4.4050031E+04
 3.7427284E+01  4.5585305E+04
 3.7467289E+01  4.6551145E+04
 3.7507298E+01  4.6731742E+04
 3.7547306E+01  4.6075699E+04
 3.7587315E+01  4.4767086E+04
 3.7627323E+01  4.2913762E+04
 3.7667328E+01  4.0705605E+04
 3.7707336E+01  3.8491070E+04
 3.7747345E+01  3.6419988E+04
 3.7787354E+01  3.4686910E+04
 3.7827362E+01  3.3309918E+04
 3.7867367E+01  3.2310072E+04
 3.7907375E+01  3.1659096E+04
 3.7947384E+01  3.1329424E+04
 3.7987392E+01  3.1315258E+04
 3.8027401E+01  3.1537529E+04
 3.8067406E+01  3.1893547E+04
 3.8107414E+01  3.2253285E+04
 3.8147423E+01  3.2473018E+04
 3.8187431E+01  3.2507883E+04
 3.8227440E+01  3.2382965E+04
 3.8267445E+01  3.2233000E+04
 3.8307453E+01  3.2181213E+04
 3.8347462E+01  3.2434424E+04
 3.8387470E+01  3.2981539E+04
 3.8427479E+01  3.3747625E+04
 3.8467484E+01  3.4638969E+04
 3.8507492E+01  3.5501703E+04
 3.8547501E+01  3.6130398E+04
 3.8587509E+01  3.6292801E+04
 3.8627518E+01  3.5976930E+04
 3.8667522E+01  3.5281930E+04
 3.8707531E+01  3.4387305E+04
 3.8747540E+01  3.3480434E+04
 3.8787548E+01  3.2422508E+04
 3.8827557E+01  3.1613867E+04
 3.8867561E+01  3.1023830E+04
 3.8907570E+01  3.0701859E+04
 3.8947578E+01  3.0631459E+04
 3.8987587E+01  3.0883688E+04
 3.9027596E+01  3.1437314E+04
 3.9067600E+01  3.2288516E+04
 3.9107609E+01  3.3369512E+04
 3.9147617E+01  3.4573535E+04
 3.9187626E+01  3.5620234E+04
 3.9227634E+01  3.6315930E+04
 3.9267639E+01  3.6571910E+04
 3.9307648E+01  3.6400914E+04
 3.9347656E+01  3.6033266E+04
 3.9387665E+01  3.5713492E+04
 3.9427673E+01  3.5651734E+04
 3.9467678E+01  3.5958207E+04
 3.9507687E+01  3.6645422E+04
 3.9547695E+01  3.7554508E+04
 3.9587704E+01  3.8319801E+04
 3.9627712E+01  3.8621160E+04
 3.9667717E+01  3.8222457E+04
 3.9707726E+01  3.7139879E+04
 3.9747734E+01  3.5586820E+04
 3.9787743E+01  3.3860844E+04
 3.9827751E+01  3.2192078E+04
 3.9867756E+01  3.0767469E+04
 3.9907764E+01  2.9584898E+04
 3.9947773E+01  2.8668650E+04
 3.9987782E+01  2.8007988E+04
 4.0027790E+01  2.7522039E+04
 4.0067795E+01  2.7260793E+04
 4.0107803E+01  2.7110848E+04
 4.0147812E+01  2.7207680E+04
 4.0187820E+01  2.7317912E+04
 4.0227829E+01  2.7539047E+04
 4.0267834E+01  2.7788834E+04
 4.0307842E+01  2.7989627E+04
 4.0347851E+01  2.8145357E+04
 4.0387859E+01  2.8334576E+04
 4.0427868E+01  2.8544508E+04
 4.0467873E+01  2.8874254E+04
 4.0507881E+01  2.9370580E+04
 4.0547890E+01  3.0119102E+04
 4.0587898E+01  3.1105092E+04
 4.0627907E+01  3.2312002E+04
 4.0667912E+01  3.3645844E+04
 4.0707920E+01  3.5002016E+04
 4.0747929E+01  3.6178746E+04
 4.0787937E+01  3.6953953E+04
 4.0827946E+01  3.7164711E+04
 4.0867950E+01  3.6773586E+04
 4.0907959E+01  3.5897953E+04
 4.0947968E+01  3.4759754E+04
 4.0987976E+01  3.3582633E+04
 4.1027985E+01  3.2510717E+04
 4.1067993E+01  3.1711484E+04
 4.1107998E+01  3.1199008E+04
 4.1148006E+01  3.0985906E+04
 4.1188015E+01  3.1067127E+04
 4.1228024E+01  3.1392646E+04
 4.1268032E+01  3.1898338E+04
 4.1308037E+01  3.2409520E+04
 4.1348045E+01  3.2831625E+04
 4.1388054E+01  3.3146844E+04
 4.1428062E+01  3.3349340E+04
 4.1468071E+01  3.3546547E+04
 4.1508076E+01  3.3926984E+04
 4.1548084E+01  3.4531891E+04
 4.1588093E+01  3.5422645E+04
 4.1628101E+01  3.6482227E+04
 4.1668110E+01  3.7508156E+04
 4.1708115E+01  3.8319332E+04
 4.1748123E+01  3.8630695E+04
 4.1788132E+01  3.8339324E+04
 4.1828140E+01  3.7497969E+04
 4.1868149E+01  3.6332305E+04
 4.1908154E+01  3.4937672E+04
 4.1948162E+01  3.3493539E+04
 4.1988171E+01  3.2197369E+04
 4.2028179E+01  3.1108385E+04
 4.2068188E+01  3.0240395E+04
 4.2108192E+01  2.9588098E+04
 4.2148201E+01  2.9139293E+04
 4.2188210E+01  2.8906492E+04
 4.2228218E+01  2.8840346E+04
 4.2268227E+01  2.8971498E+04
 4.2308231E+01  2.9163385E+04
 4.2348240E+01  2.9444941E+04
 4.2388248E+01  2.9777898E+04
 4.2428257E+01  3.0178799E+04
 4.2468266E+01  3.0696699E+04
 4.2508270E+01  3.1373186E+04
 4.2548279E+01  3.2246361E+04
 4.2588287E+01  3.3404098E+04
 4.2628296E+01  3.4782465E+04
 4.2668304E+01  3.6196164E+04
 4.2708309E+01  3.7528102E+04
 4.2748318E+01  3.8506016E+04
 4.2788326E+01  3.8972371E+04
 4.2828335E+01  3.8846863E+04
 4.2868343E+01  3.8125199E+04
 4.2908348E+01  3.6994406E+04
 4.2948357E+01  3.5575590E+04
 4.2988365E+01  3.4059309E+04
 4.3028374E+01  3.2617527E+04
 4.3068382E+01  3.1377137E+04
 4.3108387E+01  3.0315447E+04
 4.3148396E+01  2.9520240E+04
 4.3188404E+01  2.8997902E+04
 4.3228413E+01  2.8640760E+04
 4.3268421E+01  2.8463646E+04
 4.3308426E+01  2.8366863E+04
 4.3348434E+01  2.8255135E+04
 4.3388443E+01  2.8079027E+04
 4.3428452E+01  2.7795494E+04
 4.3468460E+01  2.7475881E+04
 4.3508465E+01  2.7175402E+04
 4.3548473E+01  2.6893223E+04
 4.3588482E+01  2.6730727E+04
 4.3628490E+01  2.6642344E+04
 4.3668499E+01  2.6607674E+04
 4.3708504E+01  2.6585658E+04
 4.3748512E+01  2.6444086E+04
 4.3788521E+01  2.6146152E+04
 4.3828529E+01  2.5731201E+04
 4.3868538E+01  2.5281375E+04
 4.3908543E+01  2.4795342E+04
 4.3948551E+01  2.4350014E+04
 4.3988560E+01  2.3963121E+04
 4.4028568E+01  2.3718277E+04
 4.4068577E+01  2.3527596E+04
 4.4108582E+01  2.3399201E+04
 4.4148590E+01  2.3383520E+04
 4.4188599E+01  2.3440088E+04
 4.4228607E+01  2.3581283E+04
 4.4268616E+01  2.3788611E+04
 4.4308620E+01  2.4065857E+04
 4.4348629E+01  2.4399324E+04
 4.4388638E+01  2.4762629E+04
 4.4428646E+01  2.5213062E+04
 4.4468655E+01  2.5759678E+04
 4.4508659E+01  2.6408055E+04
 4.4548668E+01  2.7194152E+04
 4.4588676E+01  2.8135658E+04
 4.4628685E+01  2.9129668E+04
 4.4668694E+01  3.0099119E+04
 4.4708698E+01  3.0899770E+04
 4.4748707E+01  3.1445633E+04
 4.4788715E+01  3.1586451E+04
 4.4828724E+01  3.1443551E+04
 4.4868732E+01  3.1044812E+04
 4.4908737E+01  3.0452990E+04
 4.4948746E+01  2.9836033E+04
 4.4988754E+01  2.9255418E+04
 4.5028763E+01  2.8777383E+04
 4.5068771E+01  2.8508197E+04
 4.5108776E+01  2.8401619E+04
 4.5148785E+01  2.8499994E+04
 4.5188793E+01  2.8784891E+04
 4.5228802E+01  2.9180240E+04
 4.5268810E+01  2.9615053E+04
 4.5308815E+01  2.9995332E+04
 4.5348824E+01  3.0230328E+04
 4.5388832E+01  3.0289375E+04
 4.5428841E+01  3.0221670E+04
 4.5468849E+01  3.0213926E+04
 4.5508854E+01  3.0212395E+04
 4.5548862E+01  3.0407061E+04
 4.5588871E+01  3.0682588E+04
 4.5628880E+01  3.1034490E+04
 4.5668888E+01  3.1243639E+04
 4.5708893E+01  3.1316791E+04
 4.5748901E+01  3.1135047E+04
 4.5788910E+01  3.0696914E+04
 4.5828918E+01  3.0093295E+04
 4.5868927E+01  2.9353031E+04
 4.5908932E+01  2.8556742E+04
 4.5948940E+01  2.7791648E+04
 4.5988949E+01  2.7128193E+04
 4.6028957E+01  2.6604771E+04
 4.6068966E+01  2.6218316E+04
 4.6108971E+01  2.5924197E+04
 4.6148979E+01  2.5767436E+04
 4.6188988E+01  2.5686840E+04
 4.6228996E+01  2.5696832E+04
 4.6269005E+01  2.5770727E+04
 4.6309010E+01  2.5879752E+04
 4.6349018E+01  2.6027436E+04
 4.6389027E+01  2.6258709E+04
 4.6429035E+01  2.6581443E+04
 4.6469044E+01  2.7021141E+04
 4.6509048E+01  2.7565537E+04
 4.6549057E+01  2.8194363E+04
 4.6589066E+01  2.8824500E+04
 4.6629074E+01  2.9387605E+04
 4.6669083E+01  2.9736545E+04
 4.6709087E+01  2.9872355E+04
 4.6749096E+01  2.9786199E+04
 4.6789104E+01  2.9459961E+04
 4.6829113E+01  2.9005010E+04
 4.6869122E+01  2.8524021E+04
 4.6909126E+01  2.8070447E+04
 4.6949135E+01  2.7727979E+04
 4.6989143E+01  2.7545080E+04
 4.7029152E+01  2.7468715E+04
 4.7069160E+01  2.7559057E+04
 4.7109165E+01  2.7716969E+04
 4.7149174E+01  2.7948287E+04
 4.7189182E+01  2.8151229E+04
 4.7229191E+01  2.8250742E+04
 4.7269199E+01  2.8193342E+04
 4.7309204E+01  2.8077916E+04
 4.7349213E+01  2.7914244E+04
 4.7389221E+01  2.7749193E+04
 4.7429230E+01  2.7688016E+04
 4.7469238E+01  2.7689865E+04
 4.7509243E+01  2.7660215E+04
 4.7549252E+01  2.7545627E+04
 4.7589260E+01  2.7367754E+04
 4.7629269E+01  2.7008568E+04
 4.7669277E+01  2.6569135E+04
 4.7709282E+01  2.6015838E+04
 4.7749290E+01  2.5482293E+04
 4.7789299E+01  2.4993471E+04
 4.7829308E+01  2.4594201E+04
 4.7869316E+01  2.4268580E+04
 4.7909321E+01  2.4085596E+04
 4.7949329E+01  2.4015375E+04
 4.7989338E+01  2.4039293E+04
 4.8029346E+01  2.4129475E+04
 4.8069355E+01  2.4281090E+04
 4.8109360E+01  2.4371201E+04
 4.8149368E+01  2.4553090E+04
 4.8189377E+01  2.4939713E+04
 4.8229385E+01  2.5224457E+04
 4.8269394E+01  2.5505725E+04
 4.8309399E+01  2.5815400E+04
 4.8349407E+01  2.6186443E+04
 4.8389416E+01  2.6650594E+04
 4.8429424E+01  2.7082561E+04
 4.8469433E+01  2.7356695E+04
 4.8509438E+01  2.7463592E+04
 4.8549446E+01  2.7213301E+04
 4.8589455E+01  2.6892586E+04
 4.8629463E+01  2.6371352E+04
 4.8669472E+01  2.5760455E+04
 4.8709476E+01  2.5071221E+04
 4.8749485E+01  2.4411506E+04
 4.8789494E+01  2.3726877E+04
 4.8829502E+01  2.3329475E+04
 4.8869511E+01  2.2990939E+04
 4.8909515E+01  2.2772730E+04
 4.8949524E+01  2.2578674E+04
 4.8989532E+01  2.2456436E+04
 4.9029541E+01  2.2323248E+04
 4.9069550E+01  2.2253475E+04
 4.9109554E+01  2.2266316E+04
 4.9149563E+01  2.2260504E+04
 4.9189571E+01  2.2308598E+04
 4.9229580E+01  2.2440516E+04
 4.9269588E+01  2.2586521E+04
 4.9309593E+01  2.2740621E+04
 4.9349602E+01  2.2888180E+04
 4.9389610E+01  2.2986104E+04
 4.9429619E+01  2.3040699E+04
 4.9469627E+01  2.3046631E+04
 4.9509632E+01  2.2862555E+04
 4.9549641E+01  2.2654779E+04
 4.9589649E+01  2.2435443E+04
 4.9629658E+01  2.2278340E+04
 4.9669666E+01  2.2101410E+04
 4.9709671E+01  2.1822475E+04
 4.9749680E+01  2.1641193E+04
 4.9789688E+01  2.1479260E+04
 4.9829697E+01  2.1340439E+04
 4.9869705E+01  2.1307350E+04
 4.9909710E+01  2.1389861E+04
 4.9949718E+01  2.1513600E+04
 4.9989727E+01  2.1753672E+04
 5.0029736E+01  2.1996393E+04
 5.0069744E+01  2.2305961E+04
 5.0109749E+01  2.2732908E+04
 5.0149757E+01  2.3249389E+04
 5.0189766E+01  2.3831977E+04
 5.0229774E+01  2.4367822E+04
 5.0269783E+01  2.4869186E+04
 5.0309788E+01  2.5235896E+04
 5.0349796E+01  2.5497117E+04
 5.0389805E+01  2.5579961E+04
 5.0429813E+01  2.5476922E+04
 5.0469822E+01  2.5288832E+04
 5.0509827E+01  2.5001822E+04
 5.0549835E+01  2.4754992E+04
 5.0589844E+01  2.4571379E+04
 5.0629852E+01  2.4477494E+04
 5.0669861E+01  2.4462648E+04
 5.0709866E+01  2.4526590E+04
 5.0749874E+01  2.4665662E+04
 5.0789883E+01  2.4823221E+04
 5.0829891E+01  2.5001127E+04
 5.0869900E+01  2.5160051E+04
 5.0909904E+01  2.5202016E+04
 5.0949913E+01  2.5325348E+04
 5.0989922E+01  2.5398293E+04
 5.1029930E+01  2.5545203E+04
 5.1069939E+01  2.5688541E+04
 5.1109943E+01  2.5742881E+04
 5.1149952E+01  2.5846875E+04
 5.1189960E+01  2.5744195E+04
 5.1229969E+01  2.5416549E+04
 5.1269978E+01  2.4987826E+04
 5.1309986E+01  2.4518338E+04
 5.1349991E+01  2.3914785E+04
 5.1389999E+01  2.3362904E+04
 5.1430008E+01  2.2912453E+04
 5.1470016E+01  2.2579805E+04
 5.1510025E+01  2.2220715E+04
 5.1550030E+01  2.1940061E+04
 5.1590038E+01  2.1786816E+04
 5.1630047E+01  2.1624289E+04
 5.1670055E+01  2.1617379E+04
 5.1710064E+01  2.1675584E+04
 5.1750069E+01  2.1763381E+04
 5.1790077E+01  2.1852928E+04
 5.1830086E+01  2.2012621E+04
 5.1870094E+01  2.2351955E+04
 5.1910103E+01  2.2710455E+04
 5.1950108E+01  2.3004824E+04
 5.1990116E+01  2.3421928E+04
 5.2030125E+01  2.3722566E+04
 5.2070133E+01  2.4000400E+04
 5.2110142E+01  2.4143844E+04
 5.2150146E+01  2.4153496E+04
 5.2190155E+01  2.4017340E+04
 5.2230164E+01  2.3809111E+04
 5.2270172E+01  2.3481549E+04
 5.2310181E+01  2.3256168E+04
 5.2350185E+01  2.3054488E+04
 5.2390194E+01  2.2877801E+04
 5.2430202E+01  2.2722320E+04
 5.2470211E+01  2.2662582E+04
 5.2510220E+01  2.2620279E+04
 5.2550224E+01  2.2656191E+04
 5.2590233E+01  2.2365699E+04
 5.2630241E+01  2.2504668E+04
 5.2670250E+01  2.2332791E+04
 5.2710258E+01  2.2166635E+04
 5.2750263E+01  2.1986744E+04
 5.2790272E+01  2.1865666E+04
 5.2830280E+01  2.1803518E+04
 5.2870289E+01  2.1722707E+04
 5.2910297E+01  2.1592938E+04
 5.2950302E+01  2.1493096E+04
 5.2990311E+01  2.1301422E+04
 5.3030319E+01  2.1141326E+04
 5.3070328E+01  2.1027084E+04
 5.3110336E+01  2.0837062E+04
 5.3150341E+01  2.0794025E+04
 5.3190350E+01  2.0626041E+04
 5.3230358E+01  2.0606633E+04
 5.3270367E+01  2.0574652E+04
 5.3310375E+01  2.0661453E+04
 5.3350380E+01  2.0795396E+04
 5.3390388E+01  2.0859732E+04
 5.3430397E+01  2.0998400E+04
 5.3470406E+01  2.1153764E+04
 5.3510414E+01  2.1292178E+04
 5.3550419E+01  2.1474367E+04
 5.3590427E+01  2.1644283E+04
 5.3630436E+01  2.1872721E+04
 5.3670444E+01  2.2109072E+04
 5.3710453E+01  2.2425410E+04
 5.3750458E+01  2.2584066E+04
 5.3790466E+01  2.2693998E+04
 5.3830475E+01  2.2696105E+04
 5.3870483E+01  2.2563113E+04
 5.3910492E+01  2.2334291E+04
 5.3950497E+01  2.2038627E+04
 5.3990505E+01  2.1657863E+04
 5.4030514E+01  2.1373857E+04
 5.4070522E+01  2.1051518E+04
 5.4110531E+01  2.0823271E+04
 5.4150536E+01  2.0647135E+04
 5.4190544E+01  2.0450035E+04
 5.4230553E+01  2.0397342E+04
 5.4270561E+01  2.0334047E+04
 5.4310570E+01  2.0233273E+04
 5.4350574E+01  2.0158707E+04
 5.4390583E+01  2.0079180E+04
 5.4430592E+01  1.9880709E+04
 5.4470600E+01  1.9855453E+04
 5.4510609E+01  1.9832072E+04
 5.4550613E+01  1.9716918E+04
 5.4590622E+01  1.9712727E+04
 5.4630630E+01  1.9656449E+04
 5.4670639E+01  1.9537424E+04
 5.4710648E+01  1.9436643E+04
 5.4750652E+01  1.9327188E+04
 5.4790661E+01  1.9138824E+04
 5.4830669E+01  1.9023457E+04
 5.4870678E+01  1.8940551E+04
 5.4910686E+01  1.8851635E+04
 5.4950691E+01  1.8897660E+04
 5.4990700E+01  1.8959852E+04
 5.5030708E+01  1.8991400E+04
 5.5070717E+01  1.9096898E+04
 5.5110725E+01  1.9058826E+04
 5.5150730E+01  1.9146477E+04
 5.5190739E+01  1.9388037E+04
 5.5230747E+01  1.9511107E+04
 5.5270756E+01  1.9543201E+04
 5.5310764E+01  1.9782166E+04
 5.5350769E+01  2.0033918E+04
 5.5390778E+01  2.0165545E+04
 5.5430786E+01  2.0210770E+04
 5.5470795E+01  2.0350852E+04
 5.5510803E+01  2.0429814E+04
 5.5550808E+01  2.0448871E+04
 5.5590816E+01  2.0374047E+04
 5.5630825E+01  2.0423004E+04
 5.5670834E+01  2.0314525E+04
 5.5710842E+01  2.0314203E+04
 5.5750847E+01  2.0375527E+04
 5.5790855E+01  2.0431387E+04
 5.5830864E+01  2.0685291E+04
 5.5870872E+01  2.0765449E+04
 5.5910881E+01  2.0821455E+04
 5.5950886E+01  2.0986330E+04
 5.5990894E+01  2.1056330E+04
 5.6030903E+01  2.1303037E+04
 5.6070911E+01  2.1120584E+04
 5.6110920E+01  2.1316641E+04
 5.6150925E+01  2.1518871E+04
 5.6190933E+01  2.1495156E+04
 5.6230942E+01  2.1668770E+04
 5.6270950E+01  2.1582107E+04
 5.6310959E+01  2.1480279E+04
 5.6350964E+01  2.1269846E+04
 5.6390972E+01  2.1050084E+04
 5.6430981E+01  2.0525152E+04
 5.6470989E+01  2.0266943E+04
 5.6510998E+01  2.0309152E+04
 5.6551003E+01  1.9738178E+04
 5.6591011E+01  1.9296691E+04
 5.6631020E+01  1.8860551E+04
 5.6671028E+01  1.8819000E+04
 5.6711037E+01  1.8619596E+04
 5.6751041E+01  1.8511305E+04
 5.6791050E+01  1.8477043E+04
 5.6831059E+01  1.8224232E+04
 5.6871067E+01  1.8127342E+04
 5.6911076E+01  1.8144596E+04
 5.6951080E+01  1.8234297E+04
 5.6991089E+01  1.8241473E+04
 5.7031097E+01  1.8092582E+04
 5.7071106E+01  1.8161438E+04
 5.7111115E+01  1.8140406E+04
 5.7151119E+01  1.8025850E+04
 5.7191128E+01  1.7966311E+04
 5.7231136E+01  1.7746986E+04
 5.7271145E+01  1.7479061E+04
 5.7311153E+01  1.7298660E+04
 5.7351158E+01  1.6924268E+04
 5.7391167E+01  1.6845871E+04
 5.7431175E+01  1.6506475E+04
 5.7471184E+01  1.6353774E+04
 5.7511192E+01  1.5970735E+04
 5.7551197E+01  1.5901896E+04
 5.7591206E+01  1.5317402E+04
 5.7631214E+01  1.4802859E+04
 5.7671223E+01  1.4627561E+04
 5.7711231E+01  1.4838236E+04
 5.7751236E+01  1.4840979E+04
 5.7791245E+01  1.4486488E+04
 5.7831253E+01  1.4500764E+04
 5.7871262E+01  1.4561544E+04
 5.7911270E+01  1.4772644E+04
 5.7951275E+01  1.4807921E+04
 5.7991283E+01  1.5019730E+04
 5.8031292E+01  1.5092461E+04
 5.8071301E+01  1.4417849E+04
 5.8111309E+01  1.4046529E+04
 5.8151314E+01  1.3740443E+04
 5.8191322E+01  1.2897900E+04
 5.8231331E+01  1.2456155E+04
 5.8271339E+01  1.1644271E+04
 5.8311348E+01  1.0331525E+04
 5.8351353E+01  8.2254805E+03
 5.8391361E+01  7.6932822E+03
 5.8431370E+01  6.9553184E+03
 5.8471378E+01  6.5449565E+03
 5.8511387E+01  4.5348677E+03
 5.8551392E+01  2.6921875E+03
 5.8591400E+01  1.7252137E+03
